1.010000000000000000e+03,3.924000000000000000e+03,-1.052000000000000000e+03
1.010000000000000000e+03,3.924000000000000000e+03,-1.052000000000000000e+03
1.010000000000000000e+03,3.924000000000000000e+03,-1.052000000000000000e+03
9.960000000000000000e+02,3.924000000000000000e+03,-7.860000000000000000e+02
9.960000000000000000e+02,3.927000000000000000e+03,-7.860000000000000000e+02
9.960000000000000000e+02,3.927000000000000000e+03,-7.860000000000000000e+02
9.960000000000000000e+02,3.927000000000000000e+03,-7.860000000000000000e+02
9.690000000000000000e+02,3.927000000000000000e+03,-9.540000000000000000e+02
9.690000000000000000e+02,3.868000000000000000e+03,-9.540000000000000000e+02
9.690000000000000000e+02,3.868000000000000000e+03,-9.540000000000000000e+02
9.690000000000000000e+02,3.868000000000000000e+03,-9.540000000000000000e+02
9.050000000000000000e+02,3.868000000000000000e+03,-1.268000000000000000e+03
9.050000000000000000e+02,3.730000000000000000e+03,-1.268000000000000000e+03
9.050000000000000000e+02,3.730000000000000000e+03,-1.268000000000000000e+03
9.050000000000000000e+02,3.730000000000000000e+03,-1.268000000000000000e+03
8.090000000000000000e+02,3.730000000000000000e+03,-1.353000000000000000e+03
8.090000000000000000e+02,3.531000000000000000e+03,-1.353000000000000000e+03
8.090000000000000000e+02,3.531000000000000000e+03,-1.353000000000000000e+03
8.090000000000000000e+02,3.531000000000000000e+03,-1.353000000000000000e+03
7.180000000000000000e+02,3.531000000000000000e+03,-1.014000000000000000e+03
7.180000000000000000e+02,3.348000000000000000e+03,-1.014000000000000000e+03
7.180000000000000000e+02,3.348000000000000000e+03,-1.014000000000000000e+03
7.180000000000000000e+02,3.348000000000000000e+03,-1.014000000000000000e+03
6.590000000000000000e+02,3.348000000000000000e+03,-7.760000000000000000e+02
6.590000000000000000e+02,3.214000000000000000e+03,-7.760000000000000000e+02
6.590000000000000000e+02,3.214000000000000000e+03,-7.760000000000000000e+02
6.590000000000000000e+02,3.214000000000000000e+03,-7.760000000000000000e+02
6.260000000000000000e+02,3.214000000000000000e+03,-1.119000000000000000e+03
6.260000000000000000e+02,3.121000000000000000e+03,-1.119000000000000000e+03
6.260000000000000000e+02,3.121000000000000000e+03,-1.119000000000000000e+03
6.260000000000000000e+02,3.121000000000000000e+03,-1.119000000000000000e+03
6.040000000000000000e+02,3.121000000000000000e+03,-1.503000000000000000e+03
6.040000000000000000e+02,3.080000000000000000e+03,-1.503000000000000000e+03
6.040000000000000000e+02,3.080000000000000000e+03,-1.503000000000000000e+03
6.040000000000000000e+02,3.080000000000000000e+03,-1.503000000000000000e+03
6.010000000000000000e+02,3.080000000000000000e+03,-1.456000000000000000e+03
6.010000000000000000e+02,3.084000000000000000e+03,-1.456000000000000000e+03
6.010000000000000000e+02,3.084000000000000000e+03,-1.456000000000000000e+03
6.010000000000000000e+02,3.084000000000000000e+03,-1.456000000000000000e+03
6.020000000000000000e+02,3.084000000000000000e+03,-9.430000000000000000e+02
6.020000000000000000e+02,3.103000000000000000e+03,-9.430000000000000000e+02
6.020000000000000000e+02,3.103000000000000000e+03,-9.430000000000000000e+02
6.020000000000000000e+02,3.103000000000000000e+03,-9.430000000000000000e+02
6.080000000000000000e+02,3.103000000000000000e+03,-1.127000000000000000e+03
6.080000000000000000e+02,3.133000000000000000e+03,-1.127000000000000000e+03
6.080000000000000000e+02,3.133000000000000000e+03,-1.127000000000000000e+03
6.080000000000000000e+02,3.133000000000000000e+03,-1.127000000000000000e+03
6.430000000000000000e+02,3.133000000000000000e+03,-1.439000000000000000e+03
6.430000000000000000e+02,3.186000000000000000e+03,-1.439000000000000000e+03
6.430000000000000000e+02,3.186000000000000000e+03,-1.439000000000000000e+03
6.430000000000000000e+02,3.186000000000000000e+03,-1.439000000000000000e+03
6.760000000000000000e+02,3.186000000000000000e+03,-1.514000000000000000e+03
6.760000000000000000e+02,3.240000000000000000e+03,-1.514000000000000000e+03
6.760000000000000000e+02,3.240000000000000000e+03,-1.514000000000000000e+03
6.760000000000000000e+02,3.240000000000000000e+03,-1.514000000000000000e+03
6.940000000000000000e+02,3.240000000000000000e+03,-1.258000000000000000e+03
6.940000000000000000e+02,3.302000000000000000e+03,-1.258000000000000000e+03
6.940000000000000000e+02,3.302000000000000000e+03,-1.258000000000000000e+03
6.940000000000000000e+02,3.302000000000000000e+03,-1.258000000000000000e+03
6.970000000000000000e+02,3.302000000000000000e+03,-7.780000000000000000e+02
6.970000000000000000e+02,3.351000000000000000e+03,-7.780000000000000000e+02
6.970000000000000000e+02,3.351000000000000000e+03,-7.780000000000000000e+02
6.970000000000000000e+02,3.351000000000000000e+03,-7.780000000000000000e+02
7.100000000000000000e+02,3.351000000000000000e+03,-6.850000000000000000e+02
7.100000000000000000e+02,3.352000000000000000e+03,-6.850000000000000000e+02
7.100000000000000000e+02,3.352000000000000000e+03,-6.850000000000000000e+02
7.100000000000000000e+02,3.352000000000000000e+03,-6.850000000000000000e+02
7.070000000000000000e+02,3.352000000000000000e+03,-1.018000000000000000e+03
7.070000000000000000e+02,3.369000000000000000e+03,-1.018000000000000000e+03
7.070000000000000000e+02,3.369000000000000000e+03,-1.018000000000000000e+03
7.070000000000000000e+02,3.369000000000000000e+03,-1.018000000000000000e+03
7.110000000000000000e+02,3.369000000000000000e+03,-1.159000000000000000e+03
7.110000000000000000e+02,3.358000000000000000e+03,-1.159000000000000000e+03
7.110000000000000000e+02,3.358000000000000000e+03,-1.159000000000000000e+03
7.110000000000000000e+02,3.358000000000000000e+03,-1.159000000000000000e+03
6.920000000000000000e+02,3.358000000000000000e+03,-7.970000000000000000e+02
6.920000000000000000e+02,3.349000000000000000e+03,-7.970000000000000000e+02
6.920000000000000000e+02,3.349000000000000000e+03,-7.970000000000000000e+02
6.920000000000000000e+02,3.349000000000000000e+03,-7.970000000000000000e+02
7.010000000000000000e+02,3.349000000000000000e+03,-4.850000000000000000e+02
7.010000000000000000e+02,3.342000000000000000e+03,-4.850000000000000000e+02
7.010000000000000000e+02,3.342000000000000000e+03,-4.850000000000000000e+02
7.010000000000000000e+02,3.342000000000000000e+03,-4.850000000000000000e+02
6.840000000000000000e+02,3.342000000000000000e+03,-5.430000000000000000e+02
6.840000000000000000e+02,3.325000000000000000e+03,-5.430000000000000000e+02
6.840000000000000000e+02,3.325000000000000000e+03,-5.430000000000000000e+02
6.840000000000000000e+02,3.325000000000000000e+03,-5.430000000000000000e+02
6.820000000000000000e+02,3.325000000000000000e+03,-9.300000000000000000e+02
6.820000000000000000e+02,3.329000000000000000e+03,-9.300000000000000000e+02
6.820000000000000000e+02,3.329000000000000000e+03,-9.300000000000000000e+02
6.820000000000000000e+02,3.329000000000000000e+03,-9.300000000000000000e+02
6.790000000000000000e+02,3.329000000000000000e+03,-1.267000000000000000e+03
6.790000000000000000e+02,3.337000000000000000e+03,-1.267000000000000000e+03
6.790000000000000000e+02,3.337000000000000000e+03,-1.267000000000000000e+03
6.790000000000000000e+02,3.337000000000000000e+03,-1.267000000000000000e+03
6.820000000000000000e+02,3.337000000000000000e+03,-1.032000000000000000e+03
6.820000000000000000e+02,3.325000000000000000e+03,-1.032000000000000000e+03
6.820000000000000000e+02,3.325000000000000000e+03,-1.032000000000000000e+03
6.820000000000000000e+02,3.325000000000000000e+03,-1.032000000000000000e+03
7.000000000000000000e+02,3.325000000000000000e+03,3.170000000000000000e+02
7.000000000000000000e+02,3.366000000000000000e+03,3.170000000000000000e+02
7.000000000000000000e+02,3.366000000000000000e+03,3.170000000000000000e+02
7.000000000000000000e+02,3.366000000000000000e+03,3.170000000000000000e+02
7.000000000000000000e+02,3.366000000000000000e+03,-4.800000000000000000e+02
7.000000000000000000e+02,3.377000000000000000e+03,-4.800000000000000000e+02
7.000000000000000000e+02,3.377000000000000000e+03,-4.800000000000000000e+02
7.000000000000000000e+02,3.377000000000000000e+03,-4.800000000000000000e+02
7.020000000000000000e+02,3.377000000000000000e+03,-8.370000000000000000e+02
7.020000000000000000e+02,3.411000000000000000e+03,-8.370000000000000000e+02
7.020000000000000000e+02,3.411000000000000000e+03,-8.370000000000000000e+02
7.020000000000000000e+02,3.411000000000000000e+03,-8.370000000000000000e+02
7.230000000000000000e+02,3.411000000000000000e+03,-1.192000000000000000e+03
7.230000000000000000e+02,3.433000000000000000e+03,-1.192000000000000000e+03
7.230000000000000000e+02,3.433000000000000000e+03,-1.192000000000000000e+03
7.230000000000000000e+02,3.433000000000000000e+03,-1.192000000000000000e+03
7.270000000000000000e+02,3.433000000000000000e+03,-1.145000000000000000e+03
7.270000000000000000e+02,3.464000000000000000e+03,-1.145000000000000000e+03
7.270000000000000000e+02,3.464000000000000000e+03,-1.145000000000000000e+03
7.270000000000000000e+02,3.464000000000000000e+03,-1.145000000000000000e+03
7.330000000000000000e+02,3.464000000000000000e+03,-8.780000000000000000e+02
7.330000000000000000e+02,3.480000000000000000e+03,-8.780000000000000000e+02
7.330000000000000000e+02,3.480000000000000000e+03,-8.780000000000000000e+02
7.330000000000000000e+02,3.480000000000000000e+03,-8.780000000000000000e+02
7.430000000000000000e+02,3.480000000000000000e+03,-1.010000000000000000e+03
7.430000000000000000e+02,3.517000000000000000e+03,-1.010000000000000000e+03
7.430000000000000000e+02,3.517000000000000000e+03,-1.010000000000000000e+03
7.430000000000000000e+02,3.517000000000000000e+03,-1.010000000000000000e+03
7.500000000000000000e+02,3.517000000000000000e+03,-1.354000000000000000e+03
7.500000000000000000e+02,3.529000000000000000e+03,-1.354000000000000000e+03
7.500000000000000000e+02,3.529000000000000000e+03,-1.354000000000000000e+03
7.500000000000000000e+02,3.529000000000000000e+03,-1.354000000000000000e+03
7.670000000000000000e+02,3.529000000000000000e+03,-1.580000000000000000e+03
7.670000000000000000e+02,3.560000000000000000e+03,-1.580000000000000000e+03
7.670000000000000000e+02,3.560000000000000000e+03,-1.580000000000000000e+03
7.670000000000000000e+02,3.560000000000000000e+03,-1.580000000000000000e+03
7.630000000000000000e+02,3.560000000000000000e+03,-1.120000000000000000e+03
7.630000000000000000e+02,3.566000000000000000e+03,-1.120000000000000000e+03
7.630000000000000000e+02,3.566000000000000000e+03,-1.120000000000000000e+03
7.630000000000000000e+02,3.566000000000000000e+03,-1.120000000000000000e+03
7.820000000000000000e+02,3.566000000000000000e+03,-5.650000000000000000e+02
7.820000000000000000e+02,3.587000000000000000e+03,-5.650000000000000000e+02
7.820000000000000000e+02,3.587000000000000000e+03,-5.650000000000000000e+02
7.820000000000000000e+02,3.587000000000000000e+03,-5.650000000000000000e+02
7.780000000000000000e+02,3.587000000000000000e+03,-6.820000000000000000e+02
7.780000000000000000e+02,3.594000000000000000e+03,-6.820000000000000000e+02
7.780000000000000000e+02,3.594000000000000000e+03,-6.820000000000000000e+02
7.780000000000000000e+02,3.594000000000000000e+03,-6.820000000000000000e+02
7.490000000000000000e+02,3.594000000000000000e+03,-1.064000000000000000e+03
7.490000000000000000e+02,3.539000000000000000e+03,-1.064000000000000000e+03
7.490000000000000000e+02,3.539000000000000000e+03,-1.064000000000000000e+03
7.490000000000000000e+02,3.539000000000000000e+03,-1.064000000000000000e+03
6.760000000000000000e+02,3.539000000000000000e+03,-1.314000000000000000e+03
6.760000000000000000e+02,3.382000000000000000e+03,-1.314000000000000000e+03
6.760000000000000000e+02,3.382000000000000000e+03,-1.314000000000000000e+03
6.760000000000000000e+02,3.382000000000000000e+03,-1.314000000000000000e+03
5.730000000000000000e+02,3.382000000000000000e+03,-1.152000000000000000e+03
5.730000000000000000e+02,3.183000000000000000e+03,-1.152000000000000000e+03
5.730000000000000000e+02,3.183000000000000000e+03,-1.152000000000000000e+03
5.730000000000000000e+02,3.183000000000000000e+03,-1.152000000000000000e+03
4.980000000000000000e+02,3.183000000000000000e+03,-8.100000000000000000e+02
4.980000000000000000e+02,2.981000000000000000e+03,-8.100000000000000000e+02
4.980000000000000000e+02,2.981000000000000000e+03,-8.100000000000000000e+02
4.980000000000000000e+02,2.981000000000000000e+03,-8.100000000000000000e+02
4.360000000000000000e+02,2.981000000000000000e+03,-7.240000000000000000e+02
4.360000000000000000e+02,2.836000000000000000e+03,-7.240000000000000000e+02
4.360000000000000000e+02,2.836000000000000000e+03,-7.240000000000000000e+02
4.360000000000000000e+02,2.836000000000000000e+03,-7.240000000000000000e+02
3.890000000000000000e+02,2.836000000000000000e+03,-1.092000000000000000e+03
3.890000000000000000e+02,2.749000000000000000e+03,-1.092000000000000000e+03
3.890000000000000000e+02,2.749000000000000000e+03,-1.092000000000000000e+03
3.890000000000000000e+02,2.749000000000000000e+03,-1.092000000000000000e+03
3.820000000000000000e+02,2.749000000000000000e+03,-1.210000000000000000e+03
3.820000000000000000e+02,2.727000000000000000e+03,-1.210000000000000000e+03
3.820000000000000000e+02,2.727000000000000000e+03,-1.210000000000000000e+03
3.820000000000000000e+02,2.727000000000000000e+03,-1.210000000000000000e+03
3.700000000000000000e+02,2.727000000000000000e+03,-8.110000000000000000e+02
3.700000000000000000e+02,2.715000000000000000e+03,-8.110000000000000000e+02
3.700000000000000000e+02,2.715000000000000000e+03,-8.110000000000000000e+02
3.700000000000000000e+02,2.715000000000000000e+03,-8.110000000000000000e+02
3.680000000000000000e+02,2.715000000000000000e+03,-3.900000000000000000e+02
3.680000000000000000e+02,2.738000000000000000e+03,-3.900000000000000000e+02
3.680000000000000000e+02,2.738000000000000000e+03,-3.900000000000000000e+02
3.680000000000000000e+02,2.738000000000000000e+03,-3.900000000000000000e+02
3.900000000000000000e+02,2.738000000000000000e+03,-5.070000000000000000e+02
3.900000000000000000e+02,2.780000000000000000e+03,-5.070000000000000000e+02
3.900000000000000000e+02,2.780000000000000000e+03,-5.070000000000000000e+02
3.900000000000000000e+02,2.780000000000000000e+03,-5.070000000000000000e+02
4.160000000000000000e+02,2.780000000000000000e+03,-6.570000000000000000e+02
4.160000000000000000e+02,2.835000000000000000e+03,-6.570000000000000000e+02
4.160000000000000000e+02,2.835000000000000000e+03,-6.570000000000000000e+02
4.160000000000000000e+02,2.835000000000000000e+03,-6.570000000000000000e+02
4.520000000000000000e+02,2.835000000000000000e+03,-5.990000000000000000e+02
4.520000000000000000e+02,2.907000000000000000e+03,-5.990000000000000000e+02
4.520000000000000000e+02,2.907000000000000000e+03,-5.990000000000000000e+02
4.520000000000000000e+02,2.907000000000000000e+03,-5.990000000000000000e+02
4.670000000000000000e+02,2.907000000000000000e+03,-1.130000000000000000e+02
4.670000000000000000e+02,2.943000000000000000e+03,-1.130000000000000000e+02
4.670000000000000000e+02,2.943000000000000000e+03,-1.130000000000000000e+02
4.670000000000000000e+02,2.943000000000000000e+03,-1.130000000000000000e+02
4.810000000000000000e+02,2.943000000000000000e+03,1.870000000000000000e+02
4.810000000000000000e+02,2.990000000000000000e+03,1.870000000000000000e+02
4.810000000000000000e+02,2.990000000000000000e+03,1.870000000000000000e+02
4.810000000000000000e+02,2.990000000000000000e+03,1.870000000000000000e+02
4.840000000000000000e+02,2.990000000000000000e+03,-5.500000000000000000e+01
4.840000000000000000e+02,2.993000000000000000e+03,-5.500000000000000000e+01
4.840000000000000000e+02,2.993000000000000000e+03,-5.500000000000000000e+01
4.840000000000000000e+02,2.993000000000000000e+03,-5.500000000000000000e+01
4.890000000000000000e+02,2.993000000000000000e+03,-3.920000000000000000e+02
4.890000000000000000e+02,2.998000000000000000e+03,-3.920000000000000000e+02
4.890000000000000000e+02,2.998000000000000000e+03,-3.920000000000000000e+02
4.890000000000000000e+02,2.998000000000000000e+03,-3.920000000000000000e+02
4.770000000000000000e+02,2.998000000000000000e+03,-2.420000000000000000e+02
4.770000000000000000e+02,2.993000000000000000e+03,-2.420000000000000000e+02
4.770000000000000000e+02,2.993000000000000000e+03,-2.420000000000000000e+02
4.770000000000000000e+02,2.993000000000000000e+03,-2.420000000000000000e+02
4.710000000000000000e+02,2.993000000000000000e+03,1.530000000000000000e+02
4.710000000000000000e+02,2.982000000000000000e+03,1.530000000000000000e+02
4.710000000000000000e+02,2.982000000000000000e+03,1.530000000000000000e+02
4.710000000000000000e+02,2.982000000000000000e+03,1.530000000000000000e+02
4.710000000000000000e+02,2.982000000000000000e+03,2.250000000000000000e+02
4.710000000000000000e+02,2.966000000000000000e+03,2.250000000000000000e+02
4.710000000000000000e+02,2.966000000000000000e+03,2.250000000000000000e+02
4.710000000000000000e+02,2.966000000000000000e+03,2.250000000000000000e+02
4.680000000000000000e+02,2.966000000000000000e+03,3.300000000000000000e+01
4.680000000000000000e+02,2.964000000000000000e+03,3.300000000000000000e+01
4.680000000000000000e+02,2.964000000000000000e+03,3.300000000000000000e+01
4.680000000000000000e+02,2.964000000000000000e+03,3.300000000000000000e+01
4.630000000000000000e+02,2.964000000000000000e+03,-4.260000000000000000e+02
4.630000000000000000e+02,2.973000000000000000e+03,-4.260000000000000000e+02
4.630000000000000000e+02,2.973000000000000000e+03,-4.260000000000000000e+02
4.630000000000000000e+02,2.973000000000000000e+03,-4.260000000000000000e+02
4.650000000000000000e+02,2.973000000000000000e+03,-4.580000000000000000e+02
4.650000000000000000e+02,2.960000000000000000e+03,-4.580000000000000000e+02
4.650000000000000000e+02,2.960000000000000000e+03,-4.580000000000000000e+02
4.650000000000000000e+02,2.960000000000000000e+03,-4.580000000000000000e+02
4.660000000000000000e+02,2.960000000000000000e+03,2.340000000000000000e+02
4.660000000000000000e+02,2.974000000000000000e+03,2.340000000000000000e+02
4.660000000000000000e+02,2.974000000000000000e+03,2.340000000000000000e+02
4.660000000000000000e+02,2.974000000000000000e+03,2.340000000000000000e+02
4.690000000000000000e+02,2.974000000000000000e+03,1.240000000000000000e+02
4.690000000000000000e+02,2.988000000000000000e+03,1.240000000000000000e+02
4.690000000000000000e+02,2.988000000000000000e+03,1.240000000000000000e+02
4.690000000000000000e+02,2.988000000000000000e+03,1.240000000000000000e+02
4.620000000000000000e+02,2.988000000000000000e+03,-5.470000000000000000e+02
4.620000000000000000e+02,2.986000000000000000e+03,-5.470000000000000000e+02
4.620000000000000000e+02,2.986000000000000000e+03,-5.470000000000000000e+02
4.620000000000000000e+02,2.986000000000000000e+03,-5.470000000000000000e+02
4.760000000000000000e+02,2.986000000000000000e+03,-1.032000000000000000e+03
4.760000000000000000e+02,3.009000000000000000e+03,-1.032000000000000000e+03
4.760000000000000000e+02,3.009000000000000000e+03,-1.032000000000000000e+03
4.760000000000000000e+02,3.009000000000000000e+03,-1.032000000000000000e+03
4.810000000000000000e+02,3.009000000000000000e+03,-8.970000000000000000e+02
4.810000000000000000e+02,3.018000000000000000e+03,-8.970000000000000000e+02
4.810000000000000000e+02,3.018000000000000000e+03,-8.970000000000000000e+02
4.810000000000000000e+02,3.018000000000000000e+03,-8.970000000000000000e+02
4.890000000000000000e+02,3.018000000000000000e+03,-5.340000000000000000e+02
4.890000000000000000e+02,3.031000000000000000e+03,-5.340000000000000000e+02
4.890000000000000000e+02,3.031000000000000000e+03,-5.340000000000000000e+02
4.890000000000000000e+02,3.031000000000000000e+03,-5.340000000000000000e+02
4.740000000000000000e+02,3.031000000000000000e+03,-3.960000000000000000e+02
4.740000000000000000e+02,3.043000000000000000e+03,-3.960000000000000000e+02
4.740000000000000000e+02,3.043000000000000000e+03,-3.960000000000000000e+02
4.740000000000000000e+02,3.043000000000000000e+03,-3.960000000000000000e+02
4.990000000000000000e+02,3.043000000000000000e+03,-5.980000000000000000e+02
4.990000000000000000e+02,3.067000000000000000e+03,-5.980000000000000000e+02
4.990000000000000000e+02,3.067000000000000000e+03,-5.980000000000000000e+02
4.990000000000000000e+02,3.067000000000000000e+03,-5.980000000000000000e+02
5.070000000000000000e+02,3.067000000000000000e+03,-8.820000000000000000e+02
5.070000000000000000e+02,3.116000000000000000e+03,-8.820000000000000000e+02
5.070000000000000000e+02,3.116000000000000000e+03,-8.820000000000000000e+02
5.070000000000000000e+02,3.116000000000000000e+03,-8.820000000000000000e+02
5.240000000000000000e+02,3.116000000000000000e+03,-6.990000000000000000e+02
5.240000000000000000e+02,3.166000000000000000e+03,-6.990000000000000000e+02
5.240000000000000000e+02,3.166000000000000000e+03,-6.990000000000000000e+02
5.240000000000000000e+02,3.166000000000000000e+03,-6.990000000000000000e+02
5.300000000000000000e+02,3.166000000000000000e+03,-1.640000000000000000e+02
5.300000000000000000e+02,3.178000000000000000e+03,-1.640000000000000000e+02
5.300000000000000000e+02,3.178000000000000000e+03,-1.640000000000000000e+02
5.300000000000000000e+02,3.178000000000000000e+03,-1.640000000000000000e+02
5.350000000000000000e+02,3.178000000000000000e+03,8.700000000000000000e+01
5.350000000000000000e+02,3.189000000000000000e+03,8.700000000000000000e+01
5.350000000000000000e+02,3.189000000000000000e+03,8.700000000000000000e+01
5.350000000000000000e+02,3.189000000000000000e+03,8.700000000000000000e+01
4.870000000000000000e+02,3.189000000000000000e+03,-3.260000000000000000e+02
4.870000000000000000e+02,3.114000000000000000e+03,-3.260000000000000000e+02
4.870000000000000000e+02,3.114000000000000000e+03,-3.260000000000000000e+02
4.870000000000000000e+02,3.114000000000000000e+03,-3.260000000000000000e+02
4.090000000000000000e+02,3.114000000000000000e+03,-6.910000000000000000e+02
4.090000000000000000e+02,2.943000000000000000e+03,-6.910000000000000000e+02
4.090000000000000000e+02,2.943000000000000000e+03,-6.910000000000000000e+02
4.090000000000000000e+02,2.943000000000000000e+03,-6.910000000000000000e+02
3.220000000000000000e+02,2.943000000000000000e+03,-7.090000000000000000e+02
3.220000000000000000e+02,2.739000000000000000e+03,-7.090000000000000000e+02
3.220000000000000000e+02,2.739000000000000000e+03,-7.090000000000000000e+02
3.220000000000000000e+02,2.739000000000000000e+03,-7.090000000000000000e+02
2.280000000000000000e+02,2.739000000000000000e+03,-4.240000000000000000e+02
2.280000000000000000e+02,2.535000000000000000e+03,-4.240000000000000000e+02
2.280000000000000000e+02,2.535000000000000000e+03,-4.240000000000000000e+02
2.280000000000000000e+02,2.535000000000000000e+03,-4.240000000000000000e+02
1.740000000000000000e+02,2.535000000000000000e+03,-1.780000000000000000e+02
1.740000000000000000e+02,2.408000000000000000e+03,-1.780000000000000000e+02
1.740000000000000000e+02,2.408000000000000000e+03,-1.780000000000000000e+02
1.740000000000000000e+02,2.408000000000000000e+03,-1.780000000000000000e+02
1.350000000000000000e+02,2.408000000000000000e+03,-5.490000000000000000e+02
1.350000000000000000e+02,2.303000000000000000e+03,-5.490000000000000000e+02
1.350000000000000000e+02,2.303000000000000000e+03,-5.490000000000000000e+02
1.350000000000000000e+02,2.303000000000000000e+03,-5.490000000000000000e+02
1.070000000000000000e+02,2.303000000000000000e+03,-9.260000000000000000e+02
1.070000000000000000e+02,2.247000000000000000e+03,-9.260000000000000000e+02
1.070000000000000000e+02,2.247000000000000000e+03,-9.260000000000000000e+02
1.070000000000000000e+02,2.247000000000000000e+03,-9.260000000000000000e+02
7.300000000000000000e+01,2.247000000000000000e+03,-9.100000000000000000e+02
7.300000000000000000e+01,2.179000000000000000e+03,-9.100000000000000000e+02
7.300000000000000000e+01,2.179000000000000000e+03,-9.100000000000000000e+02
7.300000000000000000e+01,2.179000000000000000e+03,-9.100000000000000000e+02
6.200000000000000000e+01,2.179000000000000000e+03,-3.850000000000000000e+02
6.200000000000000000e+01,2.140000000000000000e+03,-3.850000000000000000e+02
6.200000000000000000e+01,2.140000000000000000e+03,-3.850000000000000000e+02
6.200000000000000000e+01,2.140000000000000000e+03,-3.850000000000000000e+02
4.500000000000000000e+01,2.140000000000000000e+03,-4.690000000000000000e+02
4.500000000000000000e+01,2.107000000000000000e+03,-4.690000000000000000e+02
4.500000000000000000e+01,2.107000000000000000e+03,-4.690000000000000000e+02
4.500000000000000000e+01,2.107000000000000000e+03,-4.690000000000000000e+02
3.400000000000000000e+01,2.107000000000000000e+03,-8.680000000000000000e+02
3.400000000000000000e+01,2.070000000000000000e+03,-8.680000000000000000e+02
3.400000000000000000e+01,2.070000000000000000e+03,-8.680000000000000000e+02
3.400000000000000000e+01,2.070000000000000000e+03,-8.680000000000000000e+02
7.000000000000000000e+00,2.070000000000000000e+03,-9.780000000000000000e+02
7.000000000000000000e+00,2.021000000000000000e+03,-9.780000000000000000e+02
7.000000000000000000e+00,2.021000000000000000e+03,-9.780000000000000000e+02
7.000000000000000000e+00,2.021000000000000000e+03,-9.780000000000000000e+02
5.200000000000000000e+01,2.021000000000000000e+03,-6.820000000000000000e+02
5.200000000000000000e+01,1.936000000000000000e+03,-6.820000000000000000e+02
5.200000000000000000e+01,1.936000000000000000e+03,-6.820000000000000000e+02
5.200000000000000000e+01,1.936000000000000000e+03,-6.820000000000000000e+02
1.000000000000000000e+01,1.936000000000000000e+03,-4.280000000000000000e+02
1.000000000000000000e+01,1.854000000000000000e+03,-4.280000000000000000e+02
1.000000000000000000e+01,1.854000000000000000e+03,-4.280000000000000000e+02
1.000000000000000000e+01,1.854000000000000000e+03,-4.280000000000000000e+02
6.550700000000000000e+04,1.854000000000000000e+03,-2.910000000000000000e+02
6.550700000000000000e+04,1.770000000000000000e+03,-2.910000000000000000e+02
6.550700000000000000e+04,1.770000000000000000e+03,-2.910000000000000000e+02
6.550700000000000000e+04,1.770000000000000000e+03,-2.910000000000000000e+02
6.546700000000000000e+04,1.770000000000000000e+03,-5.730000000000000000e+02
6.546700000000000000e+04,1.694000000000000000e+03,-5.730000000000000000e+02
6.546700000000000000e+04,1.694000000000000000e+03,-5.730000000000000000e+02
6.546700000000000000e+04,1.694000000000000000e+03,-5.730000000000000000e+02
6.544600000000000000e+04,1.694000000000000000e+03,-1.191000000000000000e+03
6.544600000000000000e+04,1.655000000000000000e+03,-1.191000000000000000e+03
6.544600000000000000e+04,1.655000000000000000e+03,-1.191000000000000000e+03
6.544600000000000000e+04,1.655000000000000000e+03,-1.191000000000000000e+03
6.545400000000000000e+04,1.655000000000000000e+03,-1.261000000000000000e+03
6.545400000000000000e+04,1.681000000000000000e+03,-1.261000000000000000e+03
6.545400000000000000e+04,1.681000000000000000e+03,-1.261000000000000000e+03
6.545400000000000000e+04,1.681000000000000000e+03,-1.261000000000000000e+03
6.547500000000000000e+04,1.681000000000000000e+03,-9.410000000000000000e+02
6.547500000000000000e+04,1.710000000000000000e+03,-9.410000000000000000e+02
6.547500000000000000e+04,1.710000000000000000e+03,-9.410000000000000000e+02
6.547500000000000000e+04,1.710000000000000000e+03,-9.410000000000000000e+02
6.548100000000000000e+04,1.710000000000000000e+03,-1.183000000000000000e+03
6.548100000000000000e+04,1.724000000000000000e+03,-1.183000000000000000e+03
6.548100000000000000e+04,1.724000000000000000e+03,-1.183000000000000000e+03
6.548100000000000000e+04,1.724000000000000000e+03,-1.183000000000000000e+03
6.547500000000000000e+04,1.724000000000000000e+03,-1.617000000000000000e+03
6.547500000000000000e+04,1.712000000000000000e+03,-1.617000000000000000e+03
6.547500000000000000e+04,1.712000000000000000e+03,-1.617000000000000000e+03
6.547500000000000000e+04,1.712000000000000000e+03,-1.617000000000000000e+03
6.547000000000000000e+04,1.712000000000000000e+03,-1.723000000000000000e+03
6.547000000000000000e+04,1.712000000000000000e+03,-1.723000000000000000e+03
6.547000000000000000e+04,1.712000000000000000e+03,-1.723000000000000000e+03
6.547000000000000000e+04,1.712000000000000000e+03,-1.723000000000000000e+03
6.548500000000000000e+04,1.712000000000000000e+03,-1.475000000000000000e+03
6.548500000000000000e+04,1.753000000000000000e+03,-1.475000000000000000e+03
6.548500000000000000e+04,1.753000000000000000e+03,-1.475000000000000000e+03
6.548500000000000000e+04,1.753000000000000000e+03,-1.475000000000000000e+03
6.552600000000000000e+04,1.753000000000000000e+03,1.420000000000000000e+02
6.552600000000000000e+04,1.807000000000000000e+03,1.420000000000000000e+02
6.552600000000000000e+04,1.807000000000000000e+03,1.420000000000000000e+02
6.552600000000000000e+04,1.807000000000000000e+03,1.420000000000000000e+02
1.900000000000000000e+01,1.807000000000000000e+03,-5.890000000000000000e+02
1.900000000000000000e+01,1.893000000000000000e+03,-5.890000000000000000e+02
1.900000000000000000e+01,1.893000000000000000e+03,-5.890000000000000000e+02
1.900000000000000000e+01,1.893000000000000000e+03,-5.890000000000000000e+02
6.300000000000000000e+01,1.893000000000000000e+03,-1.269000000000000000e+03
6.300000000000000000e+01,1.987000000000000000e+03,-1.269000000000000000e+03
6.300000000000000000e+01,1.987000000000000000e+03,-1.269000000000000000e+03
6.300000000000000000e+01,1.987000000000000000e+03,-1.269000000000000000e+03
9.700000000000000000e+01,1.987000000000000000e+03,-1.529000000000000000e+03
9.700000000000000000e+01,2.057000000000000000e+03,-1.529000000000000000e+03
9.700000000000000000e+01,2.057000000000000000e+03,-1.529000000000000000e+03
9.700000000000000000e+01,2.057000000000000000e+03,-1.529000000000000000e+03
1.130000000000000000e+02,2.057000000000000000e+03,-1.266000000000000000e+03
1.130000000000000000e+02,2.083000000000000000e+03,-1.266000000000000000e+03
1.130000000000000000e+02,2.083000000000000000e+03,-1.266000000000000000e+03
1.130000000000000000e+02,2.083000000000000000e+03,-1.266000000000000000e+03
1.060000000000000000e+02,2.083000000000000000e+03,-9.500000000000000000e+02
1.060000000000000000e+02,2.088000000000000000e+03,-9.500000000000000000e+02
1.060000000000000000e+02,2.088000000000000000e+03,-9.500000000000000000e+02
1.060000000000000000e+02,2.088000000000000000e+03,-9.500000000000000000e+02
7.600000000000000000e+01,2.088000000000000000e+03,-8.330000000000000000e+02
7.600000000000000000e+01,2.035000000000000000e+03,-8.330000000000000000e+02
7.600000000000000000e+01,2.035000000000000000e+03,-8.330000000000000000e+02
7.600000000000000000e+01,2.035000000000000000e+03,-8.330000000000000000e+02
6.700000000000000000e+01,2.035000000000000000e+03,-1.205000000000000000e+03
6.700000000000000000e+01,2.015000000000000000e+03,-1.205000000000000000e+03
6.700000000000000000e+01,2.015000000000000000e+03,-1.205000000000000000e+03
6.700000000000000000e+01,2.015000000000000000e+03,-1.205000000000000000e+03
6.200000000000000000e+01,2.015000000000000000e+03,-1.136000000000000000e+03
6.200000000000000000e+01,2.033000000000000000e+03,-1.136000000000000000e+03
6.200000000000000000e+01,2.033000000000000000e+03,-1.136000000000000000e+03
6.200000000000000000e+01,2.033000000000000000e+03,-1.136000000000000000e+03
1.120000000000000000e+02,2.033000000000000000e+03,-6.550000000000000000e+02
1.120000000000000000e+02,2.088000000000000000e+03,-6.550000000000000000e+02
1.120000000000000000e+02,2.088000000000000000e+03,-6.550000000000000000e+02
1.120000000000000000e+02,2.088000000000000000e+03,-6.550000000000000000e+02
1.390000000000000000e+02,2.088000000000000000e+03,-1.480000000000000000e+02
1.390000000000000000e+02,2.178000000000000000e+03,-1.480000000000000000e+02
1.390000000000000000e+02,2.178000000000000000e+03,-1.480000000000000000e+02
1.390000000000000000e+02,2.178000000000000000e+03,-1.480000000000000000e+02
1.380000000000000000e+02,2.178000000000000000e+03,-1.820000000000000000e+02
1.380000000000000000e+02,2.188000000000000000e+03,-1.820000000000000000e+02
1.380000000000000000e+02,2.188000000000000000e+03,-1.820000000000000000e+02
1.380000000000000000e+02,2.188000000000000000e+03,-1.820000000000000000e+02
7.700000000000000000e+01,2.188000000000000000e+03,-5.210000000000000000e+02
7.700000000000000000e+01,2.069000000000000000e+03,-5.210000000000000000e+02
7.700000000000000000e+01,2.069000000000000000e+03,-5.210000000000000000e+02
7.700000000000000000e+01,2.069000000000000000e+03,-5.210000000000000000e+02
6.551400000000000000e+04,2.069000000000000000e+03,-7.370000000000000000e+02
6.551400000000000000e+04,1.850000000000000000e+03,-7.370000000000000000e+02
6.551400000000000000e+04,1.850000000000000000e+03,-7.370000000000000000e+02
6.551400000000000000e+04,1.850000000000000000e+03,-7.370000000000000000e+02
6.544800000000000000e+04,1.850000000000000000e+03,-4.820000000000000000e+02
6.544800000000000000e+04,1.664000000000000000e+03,-4.820000000000000000e+02
6.544800000000000000e+04,1.664000000000000000e+03,-4.820000000000000000e+02
6.544800000000000000e+04,1.664000000000000000e+03,-4.820000000000000000e+02
6.536200000000000000e+04,1.664000000000000000e+03,-1.680000000000000000e+02
6.536200000000000000e+04,1.504000000000000000e+03,-1.680000000000000000e+02
6.536200000000000000e+04,1.504000000000000000e+03,-1.680000000000000000e+02
6.536200000000000000e+04,1.504000000000000000e+03,-1.680000000000000000e+02
6.530600000000000000e+04,1.504000000000000000e+03,-1.770000000000000000e+02
6.530600000000000000e+04,1.365000000000000000e+03,-1.770000000000000000e+02
6.530600000000000000e+04,1.365000000000000000e+03,-1.770000000000000000e+02
6.530600000000000000e+04,1.365000000000000000e+03,-1.770000000000000000e+02
6.526000000000000000e+04,1.365000000000000000e+03,-8.020000000000000000e+02
6.526000000000000000e+04,1.264000000000000000e+03,-8.020000000000000000e+02
6.526000000000000000e+04,1.264000000000000000e+03,-8.020000000000000000e+02
6.526000000000000000e+04,1.264000000000000000e+03,-8.020000000000000000e+02
6.523500000000000000e+04,1.264000000000000000e+03,-1.029000000000000000e+03
6.523500000000000000e+04,1.210000000000000000e+03,-1.029000000000000000e+03
6.523500000000000000e+04,1.210000000000000000e+03,-1.029000000000000000e+03
6.523500000000000000e+04,1.210000000000000000e+03,-1.029000000000000000e+03
6.526800000000000000e+04,1.210000000000000000e+03,-7.660000000000000000e+02
6.526800000000000000e+04,1.292000000000000000e+03,-7.660000000000000000e+02
6.526800000000000000e+04,1.292000000000000000e+03,-7.660000000000000000e+02
6.526800000000000000e+04,1.292000000000000000e+03,-7.660000000000000000e+02
6.534300000000000000e+04,1.292000000000000000e+03,-7.490000000000000000e+02
6.534300000000000000e+04,1.463000000000000000e+03,-7.490000000000000000e+02
6.534300000000000000e+04,1.463000000000000000e+03,-7.490000000000000000e+02
6.534300000000000000e+04,1.463000000000000000e+03,-7.490000000000000000e+02
6.540700000000000000e+04,1.463000000000000000e+03,-1.118000000000000000e+03
6.540700000000000000e+04,1.619000000000000000e+03,-1.118000000000000000e+03
6.540700000000000000e+04,1.619000000000000000e+03,-1.118000000000000000e+03
6.540700000000000000e+04,1.619000000000000000e+03,-1.118000000000000000e+03
6.547100000000000000e+04,1.619000000000000000e+03,-1.499000000000000000e+03
6.547100000000000000e+04,1.726000000000000000e+03,-1.499000000000000000e+03
6.547100000000000000e+04,1.726000000000000000e+03,-1.499000000000000000e+03
6.547100000000000000e+04,1.726000000000000000e+03,-1.499000000000000000e+03
6.551700000000000000e+04,1.726000000000000000e+03,-1.648000000000000000e+03
6.551700000000000000e+04,1.854000000000000000e+03,-1.648000000000000000e+03
6.551700000000000000e+04,1.854000000000000000e+03,-1.648000000000000000e+03
6.551700000000000000e+04,1.854000000000000000e+03,-1.648000000000000000e+03
1.300000000000000000e+01,1.854000000000000000e+03,-1.072000000000000000e+03
1.300000000000000000e+01,1.927000000000000000e+03,-1.072000000000000000e+03
1.300000000000000000e+01,1.927000000000000000e+03,-1.072000000000000000e+03
1.300000000000000000e+01,1.927000000000000000e+03,-1.072000000000000000e+03
3.200000000000000000e+01,1.927000000000000000e+03,-9.870000000000000000e+02
3.200000000000000000e+01,1.944000000000000000e+03,-9.870000000000000000e+02
3.200000000000000000e+01,1.944000000000000000e+03,-9.870000000000000000e+02
3.200000000000000000e+01,1.944000000000000000e+03,-9.870000000000000000e+02
2.700000000000000000e+01,1.944000000000000000e+03,-1.255000000000000000e+03
2.700000000000000000e+01,1.941000000000000000e+03,-1.255000000000000000e+03
2.700000000000000000e+01,1.941000000000000000e+03,-1.255000000000000000e+03
2.700000000000000000e+01,1.941000000000000000e+03,-1.255000000000000000e+03
6.552700000000000000e+04,1.941000000000000000e+03,-1.603000000000000000e+03
6.552700000000000000e+04,1.889000000000000000e+03,-1.603000000000000000e+03
6.552700000000000000e+04,1.889000000000000000e+03,-1.603000000000000000e+03
6.552700000000000000e+04,1.889000000000000000e+03,-1.603000000000000000e+03
6.548700000000000000e+04,1.889000000000000000e+03,-1.513000000000000000e+03
6.548700000000000000e+04,1.770000000000000000e+03,-1.513000000000000000e+03
6.548700000000000000e+04,1.770000000000000000e+03,-1.513000000000000000e+03
6.548700000000000000e+04,1.770000000000000000e+03,-1.513000000000000000e+03
6.538500000000000000e+04,1.770000000000000000e+03,-1.103000000000000000e+03
6.538500000000000000e+04,1.565000000000000000e+03,-1.103000000000000000e+03
6.538500000000000000e+04,1.565000000000000000e+03,-1.103000000000000000e+03
6.538500000000000000e+04,1.565000000000000000e+03,-1.103000000000000000e+03
6.529300000000000000e+04,1.565000000000000000e+03,-9.350000000000000000e+02
6.529300000000000000e+04,1.363000000000000000e+03,-9.350000000000000000e+02
6.529300000000000000e+04,1.363000000000000000e+03,-9.350000000000000000e+02
6.529300000000000000e+04,1.363000000000000000e+03,-9.350000000000000000e+02
6.523000000000000000e+04,1.363000000000000000e+03,-1.343000000000000000e+03
6.523000000000000000e+04,1.214000000000000000e+03,-1.343000000000000000e+03
6.523000000000000000e+04,1.214000000000000000e+03,-1.343000000000000000e+03
6.523000000000000000e+04,1.214000000000000000e+03,-1.343000000000000000e+03
6.516100000000000000e+04,1.214000000000000000e+03,-1.550000000000000000e+03
6.516100000000000000e+04,1.100000000000000000e+03,-1.550000000000000000e+03
6.516100000000000000e+04,1.100000000000000000e+03,-1.550000000000000000e+03
6.516100000000000000e+04,1.100000000000000000e+03,-1.550000000000000000e+03
6.511900000000000000e+04,1.100000000000000000e+03,-1.365000000000000000e+03
6.511900000000000000e+04,9.980000000000000000e+02,-1.365000000000000000e+03
6.511900000000000000e+04,9.980000000000000000e+02,-1.365000000000000000e+03
6.511900000000000000e+04,9.980000000000000000e+02,-1.365000000000000000e+03
6.506000000000000000e+04,9.980000000000000000e+02,1.380000000000000000e+02
6.506000000000000000e+04,8.840000000000000000e+02,1.380000000000000000e+02
6.506000000000000000e+04,8.840000000000000000e+02,1.380000000000000000e+02
6.506000000000000000e+04,8.840000000000000000e+02,1.380000000000000000e+02
6.500700000000000000e+04,8.840000000000000000e+02,-9.660000000000000000e+02
6.500700000000000000e+04,7.920000000000000000e+02,-9.660000000000000000e+02
6.500700000000000000e+04,7.920000000000000000e+02,-9.660000000000000000e+02
6.500700000000000000e+04,7.920000000000000000e+02,-9.660000000000000000e+02
6.498800000000000000e+04,7.920000000000000000e+02,-1.089000000000000000e+03
6.498800000000000000e+04,7.400000000000000000e+02,-1.089000000000000000e+03
6.498800000000000000e+04,7.400000000000000000e+02,-1.089000000000000000e+03
6.498800000000000000e+04,7.400000000000000000e+02,-1.089000000000000000e+03
6.497700000000000000e+04,7.400000000000000000e+02,-1.466000000000000000e+03
6.497700000000000000e+04,7.200000000000000000e+02,-1.466000000000000000e+03
6.497700000000000000e+04,7.200000000000000000e+02,-1.466000000000000000e+03
6.497700000000000000e+04,7.200000000000000000e+02,-1.466000000000000000e+03
6.498900000000000000e+04,7.200000000000000000e+02,-1.381000000000000000e+03
6.498900000000000000e+04,7.600000000000000000e+02,-1.381000000000000000e+03
6.498900000000000000e+04,7.600000000000000000e+02,-1.381000000000000000e+03
6.498900000000000000e+04,7.600000000000000000e+02,-1.381000000000000000e+03
6.499300000000000000e+04,7.600000000000000000e+02,-7.550000000000000000e+02
6.499300000000000000e+04,7.850000000000000000e+02,-7.550000000000000000e+02
6.499300000000000000e+04,7.850000000000000000e+02,-7.550000000000000000e+02
6.499300000000000000e+04,7.850000000000000000e+02,-7.550000000000000000e+02
6.498500000000000000e+04,7.850000000000000000e+02,-5.130000000000000000e+02
6.498500000000000000e+04,7.550000000000000000e+02,-5.130000000000000000e+02
6.498500000000000000e+04,7.550000000000000000e+02,-5.130000000000000000e+02
6.498500000000000000e+04,7.550000000000000000e+02,-5.130000000000000000e+02
6.494100000000000000e+04,7.550000000000000000e+02,-8.400000000000000000e+02
6.494100000000000000e+04,6.840000000000000000e+02,-8.400000000000000000e+02
6.494100000000000000e+04,6.840000000000000000e+02,-8.400000000000000000e+02
6.494100000000000000e+04,6.840000000000000000e+02,-8.400000000000000000e+02
6.492100000000000000e+04,6.840000000000000000e+02,-1.133000000000000000e+03
6.492100000000000000e+04,6.300000000000000000e+02,-1.133000000000000000e+03
6.492100000000000000e+04,6.300000000000000000e+02,-1.133000000000000000e+03
6.492100000000000000e+04,6.300000000000000000e+02,-1.133000000000000000e+03
6.491400000000000000e+04,6.300000000000000000e+02,-9.590000000000000000e+02
6.491400000000000000e+04,6.260000000000000000e+02,-9.590000000000000000e+02
6.491400000000000000e+04,6.260000000000000000e+02,-9.590000000000000000e+02
6.491400000000000000e+04,6.260000000000000000e+02,-9.590000000000000000e+02
6.495400000000000000e+04,6.260000000000000000e+02,-3.390000000000000000e+02
6.495400000000000000e+04,7.020000000000000000e+02,-3.390000000000000000e+02
6.495400000000000000e+04,7.020000000000000000e+02,-3.390000000000000000e+02
6.495400000000000000e+04,7.020000000000000000e+02,-3.390000000000000000e+02
6.497700000000000000e+04,7.020000000000000000e+02,-1.840000000000000000e+02
6.497700000000000000e+04,7.680000000000000000e+02,-1.840000000000000000e+02
6.497700000000000000e+04,7.680000000000000000e+02,-1.840000000000000000e+02
6.497700000000000000e+04,7.680000000000000000e+02,-1.840000000000000000e+02
6.494600000000000000e+04,7.680000000000000000e+02,-3.470000000000000000e+02
6.494600000000000000e+04,6.900000000000000000e+02,-3.470000000000000000e+02
6.494600000000000000e+04,6.900000000000000000e+02,-3.470000000000000000e+02
6.494600000000000000e+04,6.900000000000000000e+02,-3.470000000000000000e+02
6.483700000000000000e+04,6.900000000000000000e+02,-7.900000000000000000e+02
6.483700000000000000e+04,4.920000000000000000e+02,-7.900000000000000000e+02
6.483700000000000000e+04,4.920000000000000000e+02,-7.900000000000000000e+02
6.483700000000000000e+04,4.920000000000000000e+02,-7.900000000000000000e+02
6.470400000000000000e+04,4.920000000000000000e+02,-6.790000000000000000e+02
6.470400000000000000e+04,2.160000000000000000e+02,-6.790000000000000000e+02
6.470400000000000000e+04,2.160000000000000000e+02,-6.790000000000000000e+02
6.470400000000000000e+04,2.160000000000000000e+02,-6.790000000000000000e+02
6.456800000000000000e+04,2.160000000000000000e+02,-1.060000000000000000e+02
6.456800000000000000e+04,1.500000000000000000e+01,-1.060000000000000000e+02
6.456800000000000000e+04,1.500000000000000000e+01,-1.060000000000000000e+02
6.456800000000000000e+04,1.500000000000000000e+01,-1.060000000000000000e+02
6.447900000000000000e+04,1.500000000000000000e+01,5.700000000000000000e+01
6.447900000000000000e+04,6.536500000000000000e+04,5.700000000000000000e+01
6.447900000000000000e+04,6.536500000000000000e+04,5.700000000000000000e+01
6.447900000000000000e+04,6.536500000000000000e+04,5.700000000000000000e+01
6.444400000000000000e+04,6.536500000000000000e+04,-1.880000000000000000e+02
6.444400000000000000e+04,6.529800000000000000e+04,-1.880000000000000000e+02
6.444400000000000000e+04,6.529800000000000000e+04,-1.880000000000000000e+02
6.444400000000000000e+04,6.529800000000000000e+04,-1.880000000000000000e+02
6.441700000000000000e+04,6.529800000000000000e+04,-1.070000000000000000e+02
6.441700000000000000e+04,6.524100000000000000e+04,-1.070000000000000000e+02
6.441700000000000000e+04,6.524100000000000000e+04,-1.070000000000000000e+02
6.441700000000000000e+04,6.524100000000000000e+04,-1.070000000000000000e+02
6.434900000000000000e+04,6.524100000000000000e+04,4.900000000000000000e+02
6.434900000000000000e+04,6.511700000000000000e+04,4.900000000000000000e+02
6.434900000000000000e+04,6.511700000000000000e+04,4.900000000000000000e+02
6.434900000000000000e+04,6.511700000000000000e+04,4.900000000000000000e+02
6.426400000000000000e+04,6.511700000000000000e+04,8.950000000000000000e+02
6.426400000000000000e+04,6.494100000000000000e+04,8.950000000000000000e+02
6.426400000000000000e+04,6.494100000000000000e+04,8.950000000000000000e+02
6.426400000000000000e+04,6.494100000000000000e+04,8.950000000000000000e+02
6.417100000000000000e+04,6.494100000000000000e+04,9.620000000000000000e+02
6.417100000000000000e+04,6.474200000000000000e+04,9.620000000000000000e+02
6.417100000000000000e+04,6.474200000000000000e+04,9.620000000000000000e+02
6.417100000000000000e+04,6.474200000000000000e+04,9.620000000000000000e+02
6.408300000000000000e+04,6.474200000000000000e+04,6.560000000000000000e+02
6.408300000000000000e+04,6.460600000000000000e+04,6.560000000000000000e+02
6.408300000000000000e+04,6.460600000000000000e+04,6.560000000000000000e+02
6.408300000000000000e+04,6.460600000000000000e+04,6.560000000000000000e+02
6.401500000000000000e+04,6.460600000000000000e+04,3.000000000000000000e+02
6.401500000000000000e+04,6.446500000000000000e+04,3.000000000000000000e+02
6.401500000000000000e+04,6.446500000000000000e+04,3.000000000000000000e+02
6.401500000000000000e+04,6.446500000000000000e+04,3.000000000000000000e+02
6.393700000000000000e+04,6.446500000000000000e+04,4.140000000000000000e+02
6.393700000000000000e+04,6.433300000000000000e+04,4.140000000000000000e+02
6.393700000000000000e+04,6.433300000000000000e+04,4.140000000000000000e+02
6.393700000000000000e+04,6.433300000000000000e+04,4.140000000000000000e+02
6.387600000000000000e+04,6.433300000000000000e+04,8.760000000000000000e+02
6.387600000000000000e+04,6.419000000000000000e+04,8.760000000000000000e+02
6.387600000000000000e+04,6.419000000000000000e+04,8.760000000000000000e+02
6.387600000000000000e+04,6.419000000000000000e+04,8.760000000000000000e+02
6.379100000000000000e+04,6.419000000000000000e+04,9.300000000000000000e+02
6.379100000000000000e+04,6.404300000000000000e+04,9.300000000000000000e+02
6.379100000000000000e+04,6.404300000000000000e+04,9.300000000000000000e+02
6.379100000000000000e+04,6.404300000000000000e+04,9.300000000000000000e+02
6.368800000000000000e+04,6.404300000000000000e+04,4.440000000000000000e+02
6.368800000000000000e+04,6.384900000000000000e+04,4.440000000000000000e+02
6.368800000000000000e+04,6.384900000000000000e+04,4.440000000000000000e+02
6.368800000000000000e+04,6.384900000000000000e+04,4.440000000000000000e+02
6.356900000000000000e+04,6.384900000000000000e+04,2.890000000000000000e+02
6.356900000000000000e+04,6.363700000000000000e+04,2.890000000000000000e+02
6.356900000000000000e+04,6.363700000000000000e+04,2.890000000000000000e+02
6.356900000000000000e+04,6.363700000000000000e+04,2.890000000000000000e+02
6.344900000000000000e+04,6.363700000000000000e+04,4.700000000000000000e+02
6.344900000000000000e+04,6.342000000000000000e+04,4.700000000000000000e+02
6.344900000000000000e+04,6.342000000000000000e+04,4.700000000000000000e+02
6.344900000000000000e+04,6.342000000000000000e+04,4.700000000000000000e+02
6.332200000000000000e+04,6.342000000000000000e+04,5.640000000000000000e+02
6.332200000000000000e+04,6.321100000000000000e+04,5.640000000000000000e+02
6.332200000000000000e+04,6.321100000000000000e+04,5.640000000000000000e+02
6.332200000000000000e+04,6.321100000000000000e+04,5.640000000000000000e+02
6.325300000000000000e+04,6.321100000000000000e+04,3.650000000000000000e+02
6.325300000000000000e+04,6.307000000000000000e+04,3.650000000000000000e+02
6.325300000000000000e+04,6.307000000000000000e+04,3.650000000000000000e+02
6.325300000000000000e+04,6.307000000000000000e+04,3.650000000000000000e+02
6.327300000000000000e+04,6.307000000000000000e+04,-1.350000000000000000e+02
6.327300000000000000e+04,6.309200000000000000e+04,-1.350000000000000000e+02
6.327300000000000000e+04,6.309200000000000000e+04,-1.350000000000000000e+02
6.327300000000000000e+04,6.309200000000000000e+04,-1.350000000000000000e+02
6.343400000000000000e+04,6.309200000000000000e+04,-1.610000000000000000e+02
6.343400000000000000e+04,6.342700000000000000e+04,-1.610000000000000000e+02
6.343400000000000000e+04,6.342700000000000000e+04,-1.610000000000000000e+02
6.343400000000000000e+04,6.342700000000000000e+04,-1.610000000000000000e+02
6.356100000000000000e+04,6.342700000000000000e+04,5.170000000000000000e+02
6.356100000000000000e+04,6.367100000000000000e+04,5.170000000000000000e+02
6.356100000000000000e+04,6.367100000000000000e+04,5.170000000000000000e+02
6.356100000000000000e+04,6.367100000000000000e+04,5.170000000000000000e+02
6.361500000000000000e+04,6.367100000000000000e+04,1.430000000000000000e+02
6.361500000000000000e+04,6.375700000000000000e+04,1.430000000000000000e+02
6.361500000000000000e+04,6.375700000000000000e+04,1.430000000000000000e+02
6.361500000000000000e+04,6.375700000000000000e+04,1.430000000000000000e+02
6.361300000000000000e+04,6.375700000000000000e+04,3.100000000000000000e+01
6.361300000000000000e+04,6.374600000000000000e+04,3.100000000000000000e+01
6.361300000000000000e+04,6.374600000000000000e+04,3.100000000000000000e+01
6.361300000000000000e+04,6.374600000000000000e+04,3.100000000000000000e+01
6.356400000000000000e+04,6.374600000000000000e+04,-1.580000000000000000e+02
6.356400000000000000e+04,6.367800000000000000e+04,-1.580000000000000000e+02
6.356400000000000000e+04,6.367800000000000000e+04,-1.580000000000000000e+02
6.356400000000000000e+04,6.367800000000000000e+04,-1.580000000000000000e+02
6.348100000000000000e+04,6.367800000000000000e+04,-1.320000000000000000e+02
6.348100000000000000e+04,6.351600000000000000e+04,-1.320000000000000000e+02
6.348100000000000000e+04,6.351600000000000000e+04,-1.320000000000000000e+02
6.348100000000000000e+04,6.351600000000000000e+04,-1.320000000000000000e+02
6.337400000000000000e+04,6.351600000000000000e+04,1.070000000000000000e+02
6.337400000000000000e+04,6.333500000000000000e+04,1.070000000000000000e+02
6.337400000000000000e+04,6.333500000000000000e+04,1.070000000000000000e+02
6.337400000000000000e+04,6.333500000000000000e+04,1.070000000000000000e+02
6.327900000000000000e+04,6.333500000000000000e+04,1.650000000000000000e+02
6.327900000000000000e+04,6.317500000000000000e+04,1.650000000000000000e+02
6.327900000000000000e+04,6.317500000000000000e+04,1.650000000000000000e+02
6.327900000000000000e+04,6.317500000000000000e+04,1.650000000000000000e+02
6.323100000000000000e+04,6.317500000000000000e+04,-2.550000000000000000e+02
6.323100000000000000e+04,6.306200000000000000e+04,-2.550000000000000000e+02
6.323100000000000000e+04,6.306200000000000000e+04,-2.550000000000000000e+02
6.323100000000000000e+04,6.306200000000000000e+04,-2.550000000000000000e+02
6.318900000000000000e+04,6.306200000000000000e+04,-7.100000000000000000e+02
6.318900000000000000e+04,6.300300000000000000e+04,-7.100000000000000000e+02
6.318900000000000000e+04,6.300300000000000000e+04,-7.100000000000000000e+02
6.318900000000000000e+04,6.300300000000000000e+04,-7.100000000000000000e+02
6.311600000000000000e+04,6.300300000000000000e+04,-6.890000000000000000e+02
6.311600000000000000e+04,6.286500000000000000e+04,-6.890000000000000000e+02
6.311600000000000000e+04,6.286500000000000000e+04,-6.890000000000000000e+02
6.311600000000000000e+04,6.286500000000000000e+04,-6.890000000000000000e+02
6.303500000000000000e+04,6.286500000000000000e+04,-1.040000000000000000e+02
6.303500000000000000e+04,6.274400000000000000e+04,-1.040000000000000000e+02
6.303500000000000000e+04,6.274400000000000000e+04,-1.040000000000000000e+02
6.303500000000000000e+04,6.274400000000000000e+04,-1.040000000000000000e+02
6.297000000000000000e+04,6.274400000000000000e+04,4.790000000000000000e+02
6.297000000000000000e+04,6.262500000000000000e+04,4.790000000000000000e+02
6.297000000000000000e+04,6.262500000000000000e+04,4.790000000000000000e+02
6.297000000000000000e+04,6.262500000000000000e+04,4.790000000000000000e+02
6.294800000000000000e+04,6.262500000000000000e+04,3.680000000000000000e+02
6.294800000000000000e+04,6.259100000000000000e+04,3.680000000000000000e+02
6.294800000000000000e+04,6.259100000000000000e+04,3.680000000000000000e+02
6.294800000000000000e+04,6.259100000000000000e+04,3.680000000000000000e+02
6.301300000000000000e+04,6.259100000000000000e+04,-1.430000000000000000e+02
6.301300000000000000e+04,6.269800000000000000e+04,-1.430000000000000000e+02
6.301300000000000000e+04,6.269800000000000000e+04,-1.430000000000000000e+02
6.301300000000000000e+04,6.269800000000000000e+04,-1.430000000000000000e+02
6.306400000000000000e+04,6.269800000000000000e+04,-2.960000000000000000e+02
6.306400000000000000e+04,6.279200000000000000e+04,-2.960000000000000000e+02
6.306400000000000000e+04,6.279200000000000000e+04,-2.960000000000000000e+02
6.306400000000000000e+04,6.279200000000000000e+04,-2.960000000000000000e+02
6.303600000000000000e+04,6.279200000000000000e+04,2.260000000000000000e+02
6.303600000000000000e+04,6.271700000000000000e+04,2.260000000000000000e+02
6.303600000000000000e+04,6.271700000000000000e+04,2.260000000000000000e+02
6.303600000000000000e+04,6.271700000000000000e+04,2.260000000000000000e+02
6.293800000000000000e+04,6.271700000000000000e+04,3.830000000000000000e+02
6.293800000000000000e+04,6.256700000000000000e+04,3.830000000000000000e+02
6.293800000000000000e+04,6.256700000000000000e+04,3.830000000000000000e+02
6.293800000000000000e+04,6.256700000000000000e+04,3.830000000000000000e+02
6.286900000000000000e+04,6.256700000000000000e+04,2.140000000000000000e+02
6.286900000000000000e+04,6.244200000000000000e+04,2.140000000000000000e+02
6.286900000000000000e+04,6.244200000000000000e+04,2.140000000000000000e+02
6.286900000000000000e+04,6.244200000000000000e+04,2.140000000000000000e+02
6.283800000000000000e+04,6.244200000000000000e+04,-2.420000000000000000e+02
6.283800000000000000e+04,6.238300000000000000e+04,-2.420000000000000000e+02
6.283800000000000000e+04,6.238300000000000000e+04,-2.420000000000000000e+02
6.283800000000000000e+04,6.238300000000000000e+04,-2.420000000000000000e+02
6.278300000000000000e+04,6.238300000000000000e+04,-2.080000000000000000e+02
6.278300000000000000e+04,6.230600000000000000e+04,-2.080000000000000000e+02
6.278300000000000000e+04,6.230600000000000000e+04,-2.080000000000000000e+02
6.278300000000000000e+04,6.230600000000000000e+04,-2.080000000000000000e+02
6.275200000000000000e+04,6.230600000000000000e+04,3.700000000000000000e+01
6.275200000000000000e+04,6.222100000000000000e+04,3.700000000000000000e+01
6.275200000000000000e+04,6.222100000000000000e+04,3.700000000000000000e+01
6.275200000000000000e+04,6.222100000000000000e+04,3.700000000000000000e+01
6.269000000000000000e+04,6.222100000000000000e+04,4.170000000000000000e+02
6.269000000000000000e+04,6.213200000000000000e+04,4.170000000000000000e+02
6.269000000000000000e+04,6.213200000000000000e+04,4.170000000000000000e+02
6.269000000000000000e+04,6.213200000000000000e+04,4.170000000000000000e+02
6.266800000000000000e+04,6.213200000000000000e+04,4.200000000000000000e+02
6.266800000000000000e+04,6.210400000000000000e+04,4.200000000000000000e+02
6.266800000000000000e+04,6.210400000000000000e+04,4.200000000000000000e+02
6.266800000000000000e+04,6.210400000000000000e+04,4.200000000000000000e+02
6.268700000000000000e+04,6.210400000000000000e+04,8.400000000000000000e+01
6.268700000000000000e+04,6.213300000000000000e+04,8.400000000000000000e+01
6.268700000000000000e+04,6.213300000000000000e+04,8.400000000000000000e+01
6.268700000000000000e+04,6.213300000000000000e+04,8.400000000000000000e+01
6.268500000000000000e+04,6.213300000000000000e+04,2.110000000000000000e+02
6.268500000000000000e+04,6.214600000000000000e+04,2.110000000000000000e+02
6.268500000000000000e+04,6.214600000000000000e+04,2.110000000000000000e+02
6.268500000000000000e+04,6.214600000000000000e+04,2.110000000000000000e+02
6.264500000000000000e+04,6.214600000000000000e+04,4.550000000000000000e+02
6.264500000000000000e+04,6.209800000000000000e+04,4.550000000000000000e+02
6.264500000000000000e+04,6.209800000000000000e+04,4.550000000000000000e+02
6.264500000000000000e+04,6.209800000000000000e+04,4.550000000000000000e+02
6.260800000000000000e+04,6.209800000000000000e+04,5.810000000000000000e+02
6.260800000000000000e+04,6.203500000000000000e+04,5.810000000000000000e+02
6.260800000000000000e+04,6.203500000000000000e+04,5.810000000000000000e+02
6.260800000000000000e+04,6.203500000000000000e+04,5.810000000000000000e+02
6.255600000000000000e+04,6.203500000000000000e+04,3.810000000000000000e+02
6.255600000000000000e+04,6.191800000000000000e+04,3.810000000000000000e+02
6.255600000000000000e+04,6.191800000000000000e+04,3.810000000000000000e+02
6.255600000000000000e+04,6.191800000000000000e+04,3.810000000000000000e+02
6.243900000000000000e+04,6.191800000000000000e+04,1.990000000000000000e+02
6.243900000000000000e+04,6.172100000000000000e+04,1.990000000000000000e+02
6.243900000000000000e+04,6.172100000000000000e+04,1.990000000000000000e+02
6.243900000000000000e+04,6.172100000000000000e+04,1.990000000000000000e+02
6.231400000000000000e+04,6.172100000000000000e+04,2.790000000000000000e+02
6.231400000000000000e+04,6.150700000000000000e+04,2.790000000000000000e+02
6.231400000000000000e+04,6.150700000000000000e+04,2.790000000000000000e+02
6.231400000000000000e+04,6.150700000000000000e+04,2.790000000000000000e+02
6.222000000000000000e+04,6.150700000000000000e+04,9.990000000000000000e+02
6.222000000000000000e+04,6.139000000000000000e+04,9.990000000000000000e+02
6.222000000000000000e+04,6.139000000000000000e+04,9.990000000000000000e+02
6.222000000000000000e+04,6.139000000000000000e+04,9.990000000000000000e+02
6.214900000000000000e+04,6.139000000000000000e+04,1.173000000000000000e+03
6.214900000000000000e+04,6.126300000000000000e+04,1.173000000000000000e+03
6.214900000000000000e+04,6.126300000000000000e+04,1.173000000000000000e+03
6.214900000000000000e+04,6.126300000000000000e+04,1.173000000000000000e+03
6.206600000000000000e+04,6.126300000000000000e+04,1.173000000000000000e+03
6.206600000000000000e+04,6.110900000000000000e+04,1.173000000000000000e+03
6.206600000000000000e+04,6.110900000000000000e+04,1.173000000000000000e+03
6.206600000000000000e+04,6.110900000000000000e+04,1.173000000000000000e+03
6.197100000000000000e+04,6.110900000000000000e+04,1.532000000000000000e+03
6.197100000000000000e+04,6.094500000000000000e+04,1.532000000000000000e+03
6.197100000000000000e+04,6.094500000000000000e+04,1.532000000000000000e+03
6.197100000000000000e+04,6.094500000000000000e+04,1.532000000000000000e+03
6.187800000000000000e+04,6.094500000000000000e+04,1.651000000000000000e+03
6.187800000000000000e+04,6.078800000000000000e+04,1.651000000000000000e+03
6.187800000000000000e+04,6.078800000000000000e+04,1.651000000000000000e+03
6.187800000000000000e+04,6.078800000000000000e+04,1.651000000000000000e+03
6.181700000000000000e+04,6.078800000000000000e+04,2.463000000000000000e+03
6.181700000000000000e+04,6.064700000000000000e+04,2.463000000000000000e+03
6.181700000000000000e+04,6.064700000000000000e+04,2.463000000000000000e+03
6.181700000000000000e+04,6.064700000000000000e+04,2.463000000000000000e+03
6.172800000000000000e+04,6.064700000000000000e+04,2.560000000000000000e+03
6.172800000000000000e+04,6.051500000000000000e+04,2.560000000000000000e+03
6.172800000000000000e+04,6.051500000000000000e+04,2.560000000000000000e+03
6.172800000000000000e+04,6.051500000000000000e+04,2.560000000000000000e+03
6.166000000000000000e+04,6.051500000000000000e+04,2.122000000000000000e+03
6.166000000000000000e+04,6.041000000000000000e+04,2.122000000000000000e+03
6.166000000000000000e+04,6.041000000000000000e+04,2.122000000000000000e+03
6.166000000000000000e+04,6.041000000000000000e+04,2.122000000000000000e+03
6.163000000000000000e+04,6.041000000000000000e+04,1.622000000000000000e+03
6.163000000000000000e+04,6.036000000000000000e+04,1.622000000000000000e+03
6.163000000000000000e+04,6.036000000000000000e+04,1.622000000000000000e+03
6.163000000000000000e+04,6.036000000000000000e+04,1.622000000000000000e+03
6.162500000000000000e+04,6.036000000000000000e+04,1.511000000000000000e+03
6.162500000000000000e+04,6.034100000000000000e+04,1.511000000000000000e+03
6.162500000000000000e+04,6.034100000000000000e+04,1.511000000000000000e+03
6.162500000000000000e+04,6.034100000000000000e+04,1.511000000000000000e+03
6.158300000000000000e+04,6.034100000000000000e+04,1.920000000000000000e+03
6.158300000000000000e+04,6.027700000000000000e+04,1.920000000000000000e+03
6.158300000000000000e+04,6.027700000000000000e+04,1.920000000000000000e+03
6.158300000000000000e+04,6.027700000000000000e+04,1.920000000000000000e+03
6.153400000000000000e+04,6.027700000000000000e+04,2.166000000000000000e+03
6.153400000000000000e+04,6.018300000000000000e+04,2.166000000000000000e+03
6.153400000000000000e+04,6.018300000000000000e+04,2.166000000000000000e+03
6.153400000000000000e+04,6.018300000000000000e+04,2.166000000000000000e+03
6.149700000000000000e+04,6.018300000000000000e+04,1.392000000000000000e+03
6.149700000000000000e+04,6.013200000000000000e+04,1.392000000000000000e+03
6.149700000000000000e+04,6.013200000000000000e+04,1.392000000000000000e+03
6.149700000000000000e+04,6.013200000000000000e+04,1.392000000000000000e+03
6.144300000000000000e+04,6.013200000000000000e+04,7.450000000000000000e+02
6.144300000000000000e+04,6.004900000000000000e+04,7.450000000000000000e+02
6.144300000000000000e+04,6.004900000000000000e+04,7.450000000000000000e+02
6.144300000000000000e+04,6.004900000000000000e+04,7.450000000000000000e+02
6.143900000000000000e+04,6.004900000000000000e+04,8.800000000000000000e+02
6.143900000000000000e+04,5.995100000000000000e+04,8.800000000000000000e+02
6.143900000000000000e+04,5.995100000000000000e+04,8.800000000000000000e+02
6.143900000000000000e+04,5.995100000000000000e+04,8.800000000000000000e+02
6.136500000000000000e+04,5.995100000000000000e+04,1.298000000000000000e+03
6.136500000000000000e+04,5.983700000000000000e+04,1.298000000000000000e+03
6.136500000000000000e+04,5.983700000000000000e+04,1.298000000000000000e+03
6.136500000000000000e+04,5.983700000000000000e+04,1.298000000000000000e+03
6.126800000000000000e+04,5.983700000000000000e+04,1.033000000000000000e+03
6.126800000000000000e+04,5.969900000000000000e+04,1.033000000000000000e+03
6.126800000000000000e+04,5.969900000000000000e+04,1.033000000000000000e+03
6.126800000000000000e+04,5.969900000000000000e+04,1.033000000000000000e+03
6.128700000000000000e+04,5.969900000000000000e+04,4.170000000000000000e+02
6.128700000000000000e+04,5.972300000000000000e+04,4.170000000000000000e+02
6.128700000000000000e+04,5.972300000000000000e+04,4.170000000000000000e+02
6.128700000000000000e+04,5.972300000000000000e+04,4.170000000000000000e+02
6.152000000000000000e+04,5.972300000000000000e+04,-2.610000000000000000e+02
6.152000000000000000e+04,6.012300000000000000e+04,-2.610000000000000000e+02
6.152000000000000000e+04,6.012300000000000000e+04,-2.610000000000000000e+02
6.152000000000000000e+04,6.012300000000000000e+04,-2.610000000000000000e+02
6.190900000000000000e+04,6.012300000000000000e+04,-4.340000000000000000e+02
6.190900000000000000e+04,6.082100000000000000e+04,-4.340000000000000000e+02
6.190900000000000000e+04,6.082100000000000000e+04,-4.340000000000000000e+02
6.190900000000000000e+04,6.082100000000000000e+04,-4.340000000000000000e+02
6.229400000000000000e+04,6.082100000000000000e+04,-1.610000000000000000e+02
6.229400000000000000e+04,6.147800000000000000e+04,-1.610000000000000000e+02
6.229400000000000000e+04,6.147800000000000000e+04,-1.610000000000000000e+02
6.229400000000000000e+04,6.147800000000000000e+04,-1.610000000000000000e+02
6.252600000000000000e+04,6.147800000000000000e+04,-2.800000000000000000e+02
6.252600000000000000e+04,6.189100000000000000e+04,-2.800000000000000000e+02
6.252600000000000000e+04,6.189100000000000000e+04,-2.800000000000000000e+02
6.252600000000000000e+04,6.189100000000000000e+04,-2.800000000000000000e+02
6.260100000000000000e+04,6.189100000000000000e+04,-6.540000000000000000e+02
6.260100000000000000e+04,6.203900000000000000e+04,-6.540000000000000000e+02
6.260100000000000000e+04,6.203900000000000000e+04,-6.540000000000000000e+02
6.260100000000000000e+04,6.203900000000000000e+04,-6.540000000000000000e+02
6.263400000000000000e+04,6.203900000000000000e+04,-7.240000000000000000e+02
6.263400000000000000e+04,6.211200000000000000e+04,-7.240000000000000000e+02
6.263400000000000000e+04,6.211200000000000000e+04,-7.240000000000000000e+02
6.263400000000000000e+04,6.211200000000000000e+04,-7.240000000000000000e+02
6.266900000000000000e+04,6.211200000000000000e+04,-3.450000000000000000e+02
6.266900000000000000e+04,6.215600000000000000e+04,-3.450000000000000000e+02
6.266900000000000000e+04,6.215600000000000000e+04,-3.450000000000000000e+02
6.266900000000000000e+04,6.215600000000000000e+04,-3.450000000000000000e+02
6.268900000000000000e+04,6.215600000000000000e+04,1.150000000000000000e+02
6.268900000000000000e+04,6.220600000000000000e+04,1.150000000000000000e+02
6.268900000000000000e+04,6.220600000000000000e+04,1.150000000000000000e+02
6.268900000000000000e+04,6.220600000000000000e+04,1.150000000000000000e+02
6.267900000000000000e+04,6.220600000000000000e+04,8.800000000000000000e+01
6.267900000000000000e+04,6.218300000000000000e+04,8.800000000000000000e+01
6.267900000000000000e+04,6.218300000000000000e+04,8.800000000000000000e+01
6.267900000000000000e+04,6.218300000000000000e+04,8.800000000000000000e+01
6.261200000000000000e+04,6.218300000000000000e+04,-3.340000000000000000e+02
6.261200000000000000e+04,6.208200000000000000e+04,-3.340000000000000000e+02
6.261200000000000000e+04,6.208200000000000000e+04,-3.340000000000000000e+02
6.261200000000000000e+04,6.208200000000000000e+04,-3.340000000000000000e+02
6.249800000000000000e+04,6.208200000000000000e+04,-2.890000000000000000e+02
6.249800000000000000e+04,6.189300000000000000e+04,-2.890000000000000000e+02
6.249800000000000000e+04,6.189300000000000000e+04,-2.890000000000000000e+02
6.249800000000000000e+04,6.189300000000000000e+04,-2.890000000000000000e+02
6.243800000000000000e+04,6.189300000000000000e+04,2.540000000000000000e+02
6.243800000000000000e+04,6.176900000000000000e+04,2.540000000000000000e+02
6.243800000000000000e+04,6.176900000000000000e+04,2.540000000000000000e+02
6.243800000000000000e+04,6.176900000000000000e+04,2.540000000000000000e+02
6.243100000000000000e+04,6.176900000000000000e+04,5.120000000000000000e+02
6.243100000000000000e+04,6.177500000000000000e+04,5.120000000000000000e+02
6.243100000000000000e+04,6.177500000000000000e+04,5.120000000000000000e+02
6.243100000000000000e+04,6.177500000000000000e+04,5.120000000000000000e+02
6.247400000000000000e+04,6.177500000000000000e+04,2.160000000000000000e+02
6.247400000000000000e+04,6.186100000000000000e+04,2.160000000000000000e+02
6.247400000000000000e+04,6.186100000000000000e+04,2.160000000000000000e+02
6.247400000000000000e+04,6.186100000000000000e+04,2.160000000000000000e+02
6.250700000000000000e+04,6.186100000000000000e+04,-4.130000000000000000e+02
6.250700000000000000e+04,6.191000000000000000e+04,-4.130000000000000000e+02
6.250700000000000000e+04,6.191000000000000000e+04,-4.130000000000000000e+02
6.250700000000000000e+04,6.191000000000000000e+04,-4.130000000000000000e+02
6.247000000000000000e+04,6.191000000000000000e+04,-5.420000000000000000e+02
6.247000000000000000e+04,6.184600000000000000e+04,-5.420000000000000000e+02
6.247000000000000000e+04,6.184600000000000000e+04,-5.420000000000000000e+02
6.247000000000000000e+04,6.184600000000000000e+04,-5.420000000000000000e+02
6.242900000000000000e+04,6.184600000000000000e+04,-2.240000000000000000e+02
6.242900000000000000e+04,6.176400000000000000e+04,-2.240000000000000000e+02
6.242900000000000000e+04,6.176400000000000000e+04,-2.240000000000000000e+02
6.242900000000000000e+04,6.176400000000000000e+04,-2.240000000000000000e+02
6.236300000000000000e+04,6.176400000000000000e+04,1.140000000000000000e+03
6.236300000000000000e+04,6.165500000000000000e+04,1.140000000000000000e+03
6.236300000000000000e+04,6.165500000000000000e+04,1.140000000000000000e+03
6.236300000000000000e+04,6.165500000000000000e+04,1.140000000000000000e+03
6.229300000000000000e+04,6.165500000000000000e+04,3.820000000000000000e+02
6.229300000000000000e+04,6.152400000000000000e+04,3.820000000000000000e+02
6.229300000000000000e+04,6.152400000000000000e+04,3.820000000000000000e+02
6.229300000000000000e+04,6.152400000000000000e+04,3.820000000000000000e+02
6.225000000000000000e+04,6.152400000000000000e+04,-2.490000000000000000e+02
6.225000000000000000e+04,6.146100000000000000e+04,-2.490000000000000000e+02
6.225000000000000000e+04,6.146100000000000000e+04,-2.490000000000000000e+02
6.225000000000000000e+04,6.146100000000000000e+04,-2.490000000000000000e+02
6.223500000000000000e+04,6.146100000000000000e+04,-5.900000000000000000e+02
6.223500000000000000e+04,6.144000000000000000e+04,-5.900000000000000000e+02
6.223500000000000000e+04,6.144000000000000000e+04,-5.900000000000000000e+02
6.223500000000000000e+04,6.144000000000000000e+04,-5.900000000000000000e+02
6.222800000000000000e+04,6.144000000000000000e+04,-2.050000000000000000e+02
6.222800000000000000e+04,6.143100000000000000e+04,-2.050000000000000000e+02
6.222800000000000000e+04,6.143100000000000000e+04,-2.050000000000000000e+02
6.222800000000000000e+04,6.143100000000000000e+04,-2.050000000000000000e+02
6.222700000000000000e+04,6.143100000000000000e+04,1.270000000000000000e+02
6.222700000000000000e+04,6.144000000000000000e+04,1.270000000000000000e+02
6.222700000000000000e+04,6.144000000000000000e+04,1.270000000000000000e+02
6.222700000000000000e+04,6.144000000000000000e+04,1.270000000000000000e+02
6.219900000000000000e+04,6.144000000000000000e+04,-1.810000000000000000e+02
6.219900000000000000e+04,6.141100000000000000e+04,-1.810000000000000000e+02
6.219900000000000000e+04,6.141100000000000000e+04,-1.810000000000000000e+02
6.219900000000000000e+04,6.141100000000000000e+04,-1.810000000000000000e+02
6.219600000000000000e+04,6.141100000000000000e+04,-6.790000000000000000e+02
6.219600000000000000e+04,6.138100000000000000e+04,-6.790000000000000000e+02
6.219600000000000000e+04,6.138100000000000000e+04,-6.790000000000000000e+02
6.219600000000000000e+04,6.138100000000000000e+04,-6.790000000000000000e+02
6.221400000000000000e+04,6.138100000000000000e+04,-7.610000000000000000e+02
6.221400000000000000e+04,6.141700000000000000e+04,-7.610000000000000000e+02
6.221400000000000000e+04,6.141700000000000000e+04,-7.610000000000000000e+02
6.221400000000000000e+04,6.141700000000000000e+04,-7.610000000000000000e+02
6.220600000000000000e+04,6.141700000000000000e+04,-3.480000000000000000e+02
6.220600000000000000e+04,6.140900000000000000e+04,-3.480000000000000000e+02
6.220600000000000000e+04,6.140900000000000000e+04,-3.480000000000000000e+02
6.220600000000000000e+04,6.140900000000000000e+04,-3.480000000000000000e+02
6.213600000000000000e+04,6.140900000000000000e+04,1.890000000000000000e+02
6.213600000000000000e+04,6.130600000000000000e+04,1.890000000000000000e+02
6.213600000000000000e+04,6.130600000000000000e+04,1.890000000000000000e+02
6.213600000000000000e+04,6.130600000000000000e+04,1.890000000000000000e+02
6.204000000000000000e+04,6.130600000000000000e+04,4.800000000000000000e+01
6.204000000000000000e+04,6.113600000000000000e+04,4.800000000000000000e+01
6.204000000000000000e+04,6.113600000000000000e+04,4.800000000000000000e+01
6.204000000000000000e+04,6.113600000000000000e+04,4.800000000000000000e+01
6.194700000000000000e+04,6.113600000000000000e+04,-3.280000000000000000e+02
6.194700000000000000e+04,6.097700000000000000e+04,-3.280000000000000000e+02
6.194700000000000000e+04,6.097700000000000000e+04,-3.280000000000000000e+02
6.194700000000000000e+04,6.097700000000000000e+04,-3.280000000000000000e+02
6.195000000000000000e+04,6.097700000000000000e+04,-3.860000000000000000e+02
6.195000000000000000e+04,6.095600000000000000e+04,-3.860000000000000000e+02
6.195000000000000000e+04,6.095600000000000000e+04,-3.860000000000000000e+02
6.195000000000000000e+04,6.095600000000000000e+04,-3.860000000000000000e+02
6.198900000000000000e+04,6.095600000000000000e+04,1.030000000000000000e+02
6.198900000000000000e+04,6.105900000000000000e+04,1.030000000000000000e+02
6.198900000000000000e+04,6.105900000000000000e+04,1.030000000000000000e+02
6.198900000000000000e+04,6.105900000000000000e+04,1.030000000000000000e+02
6.204000000000000000e+04,6.105900000000000000e+04,5.150000000000000000e+02
6.204000000000000000e+04,6.114800000000000000e+04,5.150000000000000000e+02
6.204000000000000000e+04,6.114800000000000000e+04,5.150000000000000000e+02
6.204000000000000000e+04,6.114800000000000000e+04,5.150000000000000000e+02
6.204600000000000000e+04,6.114800000000000000e+04,5.190000000000000000e+02
6.204600000000000000e+04,6.115200000000000000e+04,5.190000000000000000e+02
6.204600000000000000e+04,6.115200000000000000e+04,5.190000000000000000e+02
6.204600000000000000e+04,6.115200000000000000e+04,5.190000000000000000e+02
6.203700000000000000e+04,6.115200000000000000e+04,4.700000000000000000e+02
6.203700000000000000e+04,6.111800000000000000e+04,4.700000000000000000e+02
6.203700000000000000e+04,6.111800000000000000e+04,4.700000000000000000e+02
6.203700000000000000e+04,6.111800000000000000e+04,4.700000000000000000e+02
6.208900000000000000e+04,6.111800000000000000e+04,4.660000000000000000e+02
6.208900000000000000e+04,6.121500000000000000e+04,4.660000000000000000e+02
6.208900000000000000e+04,6.121500000000000000e+04,4.660000000000000000e+02
6.208900000000000000e+04,6.121500000000000000e+04,4.660000000000000000e+02
6.221400000000000000e+04,6.121500000000000000e+04,9.440000000000000000e+02
6.221400000000000000e+04,6.142000000000000000e+04,9.440000000000000000e+02
6.221400000000000000e+04,6.142000000000000000e+04,9.440000000000000000e+02
6.221400000000000000e+04,6.142000000000000000e+04,9.440000000000000000e+02
6.233800000000000000e+04,6.142000000000000000e+04,8.780000000000000000e+02
6.233800000000000000e+04,6.165900000000000000e+04,8.780000000000000000e+02
6.233800000000000000e+04,6.165900000000000000e+04,8.780000000000000000e+02
6.233800000000000000e+04,6.165900000000000000e+04,8.780000000000000000e+02
6.245500000000000000e+04,6.165900000000000000e+04,3.250000000000000000e+02
6.245500000000000000e+04,6.188300000000000000e+04,3.250000000000000000e+02
6.245500000000000000e+04,6.188300000000000000e+04,3.250000000000000000e+02
6.245500000000000000e+04,6.188300000000000000e+04,3.250000000000000000e+02
6.254400000000000000e+04,6.188300000000000000e+04,-1.120000000000000000e+02
6.254400000000000000e+04,6.202500000000000000e+04,-1.120000000000000000e+02
6.254400000000000000e+04,6.202500000000000000e+04,-1.120000000000000000e+02
6.254400000000000000e+04,6.202500000000000000e+04,-1.120000000000000000e+02
6.255700000000000000e+04,6.202500000000000000e+04,-7.000000000000000000e+01
6.255700000000000000e+04,6.205000000000000000e+04,-7.000000000000000000e+01
6.255700000000000000e+04,6.205000000000000000e+04,-7.000000000000000000e+01
6.255700000000000000e+04,6.205000000000000000e+04,-7.000000000000000000e+01
6.248400000000000000e+04,6.205000000000000000e+04,1.490000000000000000e+02
6.248400000000000000e+04,6.192500000000000000e+04,1.490000000000000000e+02
6.248400000000000000e+04,6.192500000000000000e+04,1.490000000000000000e+02
6.248400000000000000e+04,6.192500000000000000e+04,1.490000000000000000e+02
6.239200000000000000e+04,6.192500000000000000e+04,7.500000000000000000e+01
6.239200000000000000e+04,6.175700000000000000e+04,7.500000000000000000e+01
6.239200000000000000e+04,6.175700000000000000e+04,7.500000000000000000e+01
6.239200000000000000e+04,6.175700000000000000e+04,7.500000000000000000e+01
6.235400000000000000e+04,6.175700000000000000e+04,-9.000000000000000000e+01
6.235400000000000000e+04,6.168900000000000000e+04,-9.000000000000000000e+01
6.235400000000000000e+04,6.168900000000000000e+04,-9.000000000000000000e+01
6.235400000000000000e+04,6.168900000000000000e+04,-9.000000000000000000e+01
6.240800000000000000e+04,6.168900000000000000e+04,-4.310000000000000000e+02
6.240800000000000000e+04,6.181400000000000000e+04,-4.310000000000000000e+02
6.240800000000000000e+04,6.181400000000000000e+04,-4.310000000000000000e+02
6.240800000000000000e+04,6.181400000000000000e+04,-4.310000000000000000e+02
6.258000000000000000e+04,6.181400000000000000e+04,-7.170000000000000000e+02
6.258000000000000000e+04,6.211100000000000000e+04,-7.170000000000000000e+02
6.258000000000000000e+04,6.211100000000000000e+04,-7.170000000000000000e+02
6.258000000000000000e+04,6.211100000000000000e+04,-7.170000000000000000e+02
6.274000000000000000e+04,6.211100000000000000e+04,-3.070000000000000000e+02
6.274000000000000000e+04,6.239600000000000000e+04,-3.070000000000000000e+02
6.274000000000000000e+04,6.239600000000000000e+04,-3.070000000000000000e+02
6.274000000000000000e+04,6.239600000000000000e+04,-3.070000000000000000e+02
6.280800000000000000e+04,6.239600000000000000e+04,-1.360000000000000000e+02
6.280800000000000000e+04,6.251500000000000000e+04,-1.360000000000000000e+02
6.280800000000000000e+04,6.251500000000000000e+04,-1.360000000000000000e+02
6.280800000000000000e+04,6.251500000000000000e+04,-1.360000000000000000e+02
6.285200000000000000e+04,6.251500000000000000e+04,-5.340000000000000000e+02
6.285200000000000000e+04,6.257600000000000000e+04,-5.340000000000000000e+02
6.285200000000000000e+04,6.257600000000000000e+04,-5.340000000000000000e+02
6.285200000000000000e+04,6.257600000000000000e+04,-5.340000000000000000e+02
6.290600000000000000e+04,6.257600000000000000e+04,-9.050000000000000000e+02
6.290600000000000000e+04,6.270100000000000000e+04,-9.050000000000000000e+02
6.290600000000000000e+04,6.270100000000000000e+04,-9.050000000000000000e+02
6.290600000000000000e+04,6.270100000000000000e+04,-9.050000000000000000e+02
6.296000000000000000e+04,6.270100000000000000e+04,2.810000000000000000e+02
6.296000000000000000e+04,6.279900000000000000e+04,2.810000000000000000e+02
6.296000000000000000e+04,6.279900000000000000e+04,2.810000000000000000e+02
6.296000000000000000e+04,6.279900000000000000e+04,2.810000000000000000e+02
6.299500000000000000e+04,6.279900000000000000e+04,3.600000000000000000e+01
6.299500000000000000e+04,6.284800000000000000e+04,3.600000000000000000e+01
6.299500000000000000e+04,6.284800000000000000e+04,3.600000000000000000e+01
6.299500000000000000e+04,6.284800000000000000e+04,3.600000000000000000e+01
6.301900000000000000e+04,6.284800000000000000e+04,-2.600000000000000000e+02
6.301900000000000000e+04,6.291600000000000000e+04,-2.600000000000000000e+02
6.301900000000000000e+04,6.291600000000000000e+04,-2.600000000000000000e+02
6.301900000000000000e+04,6.291600000000000000e+04,-2.600000000000000000e+02
6.302100000000000000e+04,6.291600000000000000e+04,-8.680000000000000000e+02
6.302100000000000000e+04,6.294000000000000000e+04,-8.680000000000000000e+02
6.302100000000000000e+04,6.294000000000000000e+04,-8.680000000000000000e+02
6.302100000000000000e+04,6.294000000000000000e+04,-8.680000000000000000e+02
6.298300000000000000e+04,6.294000000000000000e+04,-1.039000000000000000e+03
6.298300000000000000e+04,6.287200000000000000e+04,-1.039000000000000000e+03
6.298300000000000000e+04,6.287200000000000000e+04,-1.039000000000000000e+03
6.298300000000000000e+04,6.287200000000000000e+04,-1.039000000000000000e+03
6.293000000000000000e+04,6.287200000000000000e+04,-7.970000000000000000e+02
6.293000000000000000e+04,6.274700000000000000e+04,-7.970000000000000000e+02
6.293000000000000000e+04,6.274700000000000000e+04,-7.970000000000000000e+02
6.293000000000000000e+04,6.274700000000000000e+04,-7.970000000000000000e+02
6.283100000000000000e+04,6.274700000000000000e+04,-3.520000000000000000e+02
6.283100000000000000e+04,6.259200000000000000e+04,-3.520000000000000000e+02
6.283100000000000000e+04,6.259200000000000000e+04,-3.520000000000000000e+02
6.283100000000000000e+04,6.259200000000000000e+04,-3.520000000000000000e+02
6.274500000000000000e+04,6.259200000000000000e+04,-1.920000000000000000e+02
6.274500000000000000e+04,6.245700000000000000e+04,-1.920000000000000000e+02
6.274500000000000000e+04,6.245700000000000000e+04,-1.920000000000000000e+02
6.274500000000000000e+04,6.245700000000000000e+04,-1.920000000000000000e+02
6.272300000000000000e+04,6.245700000000000000e+04,-6.290000000000000000e+02
6.272300000000000000e+04,6.241500000000000000e+04,-6.290000000000000000e+02
6.272300000000000000e+04,6.241500000000000000e+04,-6.290000000000000000e+02
6.272300000000000000e+04,6.241500000000000000e+04,-6.290000000000000000e+02
6.275200000000000000e+04,6.241500000000000000e+04,-1.135000000000000000e+03
6.275200000000000000e+04,6.249200000000000000e+04,-1.135000000000000000e+03
6.275200000000000000e+04,6.249200000000000000e+04,-1.135000000000000000e+03
6.275200000000000000e+04,6.249200000000000000e+04,-1.135000000000000000e+03
6.278000000000000000e+04,6.249200000000000000e+04,-5.990000000000000000e+02
6.278000000000000000e+04,6.254700000000000000e+04,-5.990000000000000000e+02
6.278000000000000000e+04,6.254700000000000000e+04,-5.990000000000000000e+02
6.278000000000000000e+04,6.254700000000000000e+04,-5.990000000000000000e+02
6.279700000000000000e+04,6.254700000000000000e+04,-1.100000000000000000e+02
6.279700000000000000e+04,6.256200000000000000e+04,-1.100000000000000000e+02
6.279700000000000000e+04,6.256200000000000000e+04,-1.100000000000000000e+02
6.279700000000000000e+04,6.256200000000000000e+04,-1.100000000000000000e+02
6.273900000000000000e+04,6.256200000000000000e+04,-2.250000000000000000e+02
6.273900000000000000e+04,6.245600000000000000e+04,-2.250000000000000000e+02
6.273900000000000000e+04,6.245600000000000000e+04,-2.250000000000000000e+02
6.273900000000000000e+04,6.245600000000000000e+04,-2.250000000000000000e+02
6.260200000000000000e+04,6.245600000000000000e+04,-6.340000000000000000e+02
6.260200000000000000e+04,6.221300000000000000e+04,-6.340000000000000000e+02
6.260200000000000000e+04,6.221300000000000000e+04,-6.340000000000000000e+02
6.260200000000000000e+04,6.221300000000000000e+04,-6.340000000000000000e+02
6.244300000000000000e+04,6.221300000000000000e+04,-9.340000000000000000e+02
6.244300000000000000e+04,6.194000000000000000e+04,-9.340000000000000000e+02
6.244300000000000000e+04,6.194000000000000000e+04,-9.340000000000000000e+02
6.244300000000000000e+04,6.194000000000000000e+04,-9.340000000000000000e+02
6.230800000000000000e+04,6.194000000000000000e+04,-8.480000000000000000e+02
6.230800000000000000e+04,6.168100000000000000e+04,-8.480000000000000000e+02
6.230800000000000000e+04,6.168100000000000000e+04,-8.480000000000000000e+02
6.230800000000000000e+04,6.168100000000000000e+04,-8.480000000000000000e+02
6.217900000000000000e+04,6.168100000000000000e+04,-4.360000000000000000e+02
6.217900000000000000e+04,6.145700000000000000e+04,-4.360000000000000000e+02
6.217900000000000000e+04,6.145700000000000000e+04,-4.360000000000000000e+02
6.217900000000000000e+04,6.145700000000000000e+04,-4.360000000000000000e+02
6.206500000000000000e+04,6.145700000000000000e+04,-1.057000000000000000e+03
6.206500000000000000e+04,6.129000000000000000e+04,-1.057000000000000000e+03
6.206500000000000000e+04,6.129000000000000000e+04,-1.057000000000000000e+03
6.206500000000000000e+04,6.129000000000000000e+04,-1.057000000000000000e+03
6.201300000000000000e+04,6.129000000000000000e+04,-2.139000000000000000e+03
6.201300000000000000e+04,6.116900000000000000e+04,-2.139000000000000000e+03
6.201300000000000000e+04,6.116900000000000000e+04,-2.139000000000000000e+03
6.201300000000000000e+04,6.116900000000000000e+04,-2.139000000000000000e+03
6.200200000000000000e+04,6.116900000000000000e+04,-2.467000000000000000e+03
6.200200000000000000e+04,6.117400000000000000e+04,-2.467000000000000000e+03
6.200200000000000000e+04,6.117400000000000000e+04,-2.467000000000000000e+03
6.200200000000000000e+04,6.117400000000000000e+04,-2.467000000000000000e+03
6.202500000000000000e+04,6.117400000000000000e+04,-2.052000000000000000e+03
6.202500000000000000e+04,6.120600000000000000e+04,-2.052000000000000000e+03
6.202500000000000000e+04,6.120600000000000000e+04,-2.052000000000000000e+03
6.202500000000000000e+04,6.120600000000000000e+04,-2.052000000000000000e+03
6.209300000000000000e+04,6.120600000000000000e+04,-1.487000000000000000e+03
6.209300000000000000e+04,6.132000000000000000e+04,-1.487000000000000000e+03
6.209300000000000000e+04,6.132000000000000000e+04,-1.487000000000000000e+03
6.209300000000000000e+04,6.132000000000000000e+04,-1.487000000000000000e+03
6.225700000000000000e+04,6.132000000000000000e+04,-1.644000000000000000e+03
6.225700000000000000e+04,6.162000000000000000e+04,-1.644000000000000000e+03
6.225700000000000000e+04,6.162000000000000000e+04,-1.644000000000000000e+03
6.225700000000000000e+04,6.162000000000000000e+04,-1.644000000000000000e+03
6.255600000000000000e+04,6.162000000000000000e+04,-1.927000000000000000e+03
6.255600000000000000e+04,6.215500000000000000e+04,-1.927000000000000000e+03
6.255600000000000000e+04,6.215500000000000000e+04,-1.927000000000000000e+03
6.255600000000000000e+04,6.215500000000000000e+04,-1.927000000000000000e+03
6.290400000000000000e+04,6.215500000000000000e+04,-1.903000000000000000e+03
6.290400000000000000e+04,6.278300000000000000e+04,-1.903000000000000000e+03
6.290400000000000000e+04,6.278300000000000000e+04,-1.903000000000000000e+03
6.290400000000000000e+04,6.278300000000000000e+04,-1.903000000000000000e+03
6.318500000000000000e+04,6.278300000000000000e+04,-1.227000000000000000e+03
6.318500000000000000e+04,6.330500000000000000e+04,-1.227000000000000000e+03
6.318500000000000000e+04,6.330500000000000000e+04,-1.227000000000000000e+03
6.318500000000000000e+04,6.330500000000000000e+04,-1.227000000000000000e+03
6.328100000000000000e+04,6.330500000000000000e+04,-7.250000000000000000e+02
6.328100000000000000e+04,6.350100000000000000e+04,-7.250000000000000000e+02
6.328100000000000000e+04,6.350100000000000000e+04,-7.250000000000000000e+02
6.328100000000000000e+04,6.350100000000000000e+04,-7.250000000000000000e+02
6.325000000000000000e+04,6.350100000000000000e+04,-7.660000000000000000e+02
6.325000000000000000e+04,6.341800000000000000e+04,-7.660000000000000000e+02
6.325000000000000000e+04,6.341800000000000000e+04,-7.660000000000000000e+02
6.325000000000000000e+04,6.341800000000000000e+04,-7.660000000000000000e+02
6.322000000000000000e+04,6.341800000000000000e+04,-1.562000000000000000e+03
6.322000000000000000e+04,6.339700000000000000e+04,-1.562000000000000000e+03
6.322000000000000000e+04,6.339700000000000000e+04,-1.562000000000000000e+03
6.322000000000000000e+04,6.339700000000000000e+04,-1.562000000000000000e+03
6.332200000000000000e+04,6.339700000000000000e+04,-1.788000000000000000e+03
6.332200000000000000e+04,6.355100000000000000e+04,-1.788000000000000000e+03
6.332200000000000000e+04,6.355100000000000000e+04,-1.788000000000000000e+03
6.332200000000000000e+04,6.355100000000000000e+04,-1.788000000000000000e+03
6.346500000000000000e+04,6.355100000000000000e+04,-1.187000000000000000e+03
6.346500000000000000e+04,6.384100000000000000e+04,-1.187000000000000000e+03
6.346500000000000000e+04,6.384100000000000000e+04,-1.187000000000000000e+03
6.346500000000000000e+04,6.384100000000000000e+04,-1.187000000000000000e+03
6.356600000000000000e+04,6.384100000000000000e+04,-5.800000000000000000e+02
6.356600000000000000e+04,6.403400000000000000e+04,-5.800000000000000000e+02
6.356600000000000000e+04,6.403400000000000000e+04,-5.800000000000000000e+02
6.356600000000000000e+04,6.403400000000000000e+04,-5.800000000000000000e+02
6.359500000000000000e+04,6.403400000000000000e+04,-9.180000000000000000e+02
6.359500000000000000e+04,6.407700000000000000e+04,-9.180000000000000000e+02
6.359500000000000000e+04,6.407700000000000000e+04,-9.180000000000000000e+02
6.359500000000000000e+04,6.407700000000000000e+04,-9.180000000000000000e+02
6.357200000000000000e+04,6.407700000000000000e+04,5.100000000000000000e+01
6.357200000000000000e+04,6.403500000000000000e+04,5.100000000000000000e+01
6.357200000000000000e+04,6.403500000000000000e+04,5.100000000000000000e+01
6.357200000000000000e+04,6.403500000000000000e+04,5.100000000000000000e+01
6.358500000000000000e+04,6.403500000000000000e+04,-1.002000000000000000e+03
6.358500000000000000e+04,6.406500000000000000e+04,-1.002000000000000000e+03
6.358500000000000000e+04,6.406500000000000000e+04,-1.002000000000000000e+03
6.358500000000000000e+04,6.406500000000000000e+04,-1.002000000000000000e+03
6.365600000000000000e+04,6.406500000000000000e+04,-4.980000000000000000e+02
6.365600000000000000e+04,6.419500000000000000e+04,-4.980000000000000000e+02
6.365600000000000000e+04,6.419500000000000000e+04,-4.980000000000000000e+02
6.365600000000000000e+04,6.419500000000000000e+04,-4.980000000000000000e+02
6.372000000000000000e+04,6.419500000000000000e+04,-2.610000000000000000e+02
6.372000000000000000e+04,6.430600000000000000e+04,-2.610000000000000000e+02
6.372000000000000000e+04,6.430600000000000000e+04,-2.610000000000000000e+02
6.372000000000000000e+04,6.430600000000000000e+04,-2.610000000000000000e+02
6.373700000000000000e+04,6.430600000000000000e+04,-4.870000000000000000e+02
6.373700000000000000e+04,6.432900000000000000e+04,-4.870000000000000000e+02
6.373700000000000000e+04,6.432900000000000000e+04,-4.870000000000000000e+02
6.373700000000000000e+04,6.432900000000000000e+04,-4.870000000000000000e+02
6.372700000000000000e+04,6.432900000000000000e+04,-8.500000000000000000e+02
6.372700000000000000e+04,6.431300000000000000e+04,-8.500000000000000000e+02
6.372700000000000000e+04,6.431300000000000000e+04,-8.500000000000000000e+02
6.372700000000000000e+04,6.431300000000000000e+04,-8.500000000000000000e+02
6.377400000000000000e+04,6.431300000000000000e+04,-7.980000000000000000e+02
6.377400000000000000e+04,6.444200000000000000e+04,-7.980000000000000000e+02
6.377400000000000000e+04,6.444200000000000000e+04,-7.980000000000000000e+02
6.377400000000000000e+04,6.444200000000000000e+04,-7.980000000000000000e+02
6.387900000000000000e+04,6.444200000000000000e+04,-4.610000000000000000e+02
6.387900000000000000e+04,6.462700000000000000e+04,-4.610000000000000000e+02
6.387900000000000000e+04,6.462700000000000000e+04,-4.610000000000000000e+02
6.387900000000000000e+04,6.462700000000000000e+04,-4.610000000000000000e+02
6.390900000000000000e+04,6.462700000000000000e+04,-3.080000000000000000e+02
6.390900000000000000e+04,6.467000000000000000e+04,-3.080000000000000000e+02
6.390900000000000000e+04,6.467000000000000000e+04,-3.080000000000000000e+02
6.390900000000000000e+04,6.467000000000000000e+04,-3.080000000000000000e+02
6.389100000000000000e+04,6.467000000000000000e+04,-4.260000000000000000e+02
6.389100000000000000e+04,6.466900000000000000e+04,-4.260000000000000000e+02
6.389100000000000000e+04,6.466900000000000000e+04,-4.260000000000000000e+02
6.389100000000000000e+04,6.466900000000000000e+04,-4.260000000000000000e+02
6.393500000000000000e+04,6.466900000000000000e+04,-8.020000000000000000e+02
6.393500000000000000e+04,6.474300000000000000e+04,-8.020000000000000000e+02
6.393500000000000000e+04,6.474300000000000000e+04,-8.020000000000000000e+02
6.393500000000000000e+04,6.474300000000000000e+04,-8.020000000000000000e+02
6.403400000000000000e+04,6.474300000000000000e+04,-6.940000000000000000e+02
6.403400000000000000e+04,6.492100000000000000e+04,-6.940000000000000000e+02
6.403400000000000000e+04,6.492100000000000000e+04,-6.940000000000000000e+02
6.403400000000000000e+04,6.492100000000000000e+04,-6.940000000000000000e+02
6.412000000000000000e+04,6.492100000000000000e+04,-5.450000000000000000e+02
6.412000000000000000e+04,6.509000000000000000e+04,-5.450000000000000000e+02
6.412000000000000000e+04,6.509000000000000000e+04,-5.450000000000000000e+02
6.412000000000000000e+04,6.509000000000000000e+04,-5.450000000000000000e+02
6.412900000000000000e+04,6.509000000000000000e+04,-4.970000000000000000e+02
6.412900000000000000e+04,6.511000000000000000e+04,-4.970000000000000000e+02
6.412900000000000000e+04,6.511000000000000000e+04,-4.970000000000000000e+02
6.412900000000000000e+04,6.511000000000000000e+04,-4.970000000000000000e+02
6.406600000000000000e+04,6.511000000000000000e+04,-8.230000000000000000e+02
6.406600000000000000e+04,6.496800000000000000e+04,-8.230000000000000000e+02
6.406600000000000000e+04,6.496800000000000000e+04,-8.230000000000000000e+02
6.406600000000000000e+04,6.496800000000000000e+04,-8.230000000000000000e+02
6.399500000000000000e+04,6.496800000000000000e+04,-1.288000000000000000e+03
6.399500000000000000e+04,6.482700000000000000e+04,-1.288000000000000000e+03
6.399500000000000000e+04,6.482700000000000000e+04,-1.288000000000000000e+03
6.399500000000000000e+04,6.482700000000000000e+04,-1.288000000000000000e+03
6.395600000000000000e+04,6.482700000000000000e+04,-1.324000000000000000e+03
6.395600000000000000e+04,6.479500000000000000e+04,-1.324000000000000000e+03
6.395600000000000000e+04,6.479500000000000000e+04,-1.324000000000000000e+03
6.395600000000000000e+04,6.479500000000000000e+04,-1.324000000000000000e+03
6.398200000000000000e+04,6.479500000000000000e+04,-1.164000000000000000e+03
6.398200000000000000e+04,6.482200000000000000e+04,-1.164000000000000000e+03
6.398200000000000000e+04,6.482200000000000000e+04,-1.164000000000000000e+03
6.398200000000000000e+04,6.482200000000000000e+04,-1.164000000000000000e+03
6.404500000000000000e+04,6.482200000000000000e+04,-9.290000000000000000e+02
6.404500000000000000e+04,6.492500000000000000e+04,-9.290000000000000000e+02
6.404500000000000000e+04,6.492500000000000000e+04,-9.290000000000000000e+02
6.404500000000000000e+04,6.492500000000000000e+04,-9.290000000000000000e+02
6.410000000000000000e+04,6.492500000000000000e+04,-1.205000000000000000e+03
6.410000000000000000e+04,6.504900000000000000e+04,-1.205000000000000000e+03
6.410000000000000000e+04,6.504900000000000000e+04,-1.205000000000000000e+03
6.410000000000000000e+04,6.504900000000000000e+04,-1.205000000000000000e+03
6.417700000000000000e+04,6.504900000000000000e+04,-1.410000000000000000e+03
6.417700000000000000e+04,6.520100000000000000e+04,-1.410000000000000000e+03
6.417700000000000000e+04,6.520100000000000000e+04,-1.410000000000000000e+03
6.417700000000000000e+04,6.520100000000000000e+04,-1.410000000000000000e+03
6.428800000000000000e+04,6.520100000000000000e+04,-1.198000000000000000e+03
6.428800000000000000e+04,6.539300000000000000e+04,-1.198000000000000000e+03
6.428800000000000000e+04,6.539300000000000000e+04,-1.198000000000000000e+03
6.428800000000000000e+04,6.539300000000000000e+04,-1.198000000000000000e+03
6.435400000000000000e+04,6.539300000000000000e+04,-5.750000000000000000e+02
6.435400000000000000e+04,6.552200000000000000e+04,-5.750000000000000000e+02
6.435400000000000000e+04,6.552200000000000000e+04,-5.750000000000000000e+02
6.435400000000000000e+04,6.552200000000000000e+04,-5.750000000000000000e+02
6.434900000000000000e+04,6.552200000000000000e+04,-2.910000000000000000e+02
6.434900000000000000e+04,6.550700000000000000e+04,-2.910000000000000000e+02
6.434900000000000000e+04,6.550700000000000000e+04,-2.910000000000000000e+02
6.434900000000000000e+04,6.550700000000000000e+04,-2.910000000000000000e+02
6.432200000000000000e+04,6.550700000000000000e+04,-4.270000000000000000e+02
6.432200000000000000e+04,6.542700000000000000e+04,-4.270000000000000000e+02
6.432200000000000000e+04,6.542700000000000000e+04,-4.270000000000000000e+02
6.432200000000000000e+04,6.542700000000000000e+04,-4.270000000000000000e+02
6.429400000000000000e+04,6.542700000000000000e+04,-4.540000000000000000e+02
6.429400000000000000e+04,6.539600000000000000e+04,-4.540000000000000000e+02
6.429400000000000000e+04,6.539600000000000000e+04,-4.540000000000000000e+02
6.429400000000000000e+04,6.539600000000000000e+04,-4.540000000000000000e+02
6.428700000000000000e+04,6.539600000000000000e+04,-3.200000000000000000e+02
6.428700000000000000e+04,6.537500000000000000e+04,-3.200000000000000000e+02
6.428700000000000000e+04,6.537500000000000000e+04,-3.200000000000000000e+02
6.428700000000000000e+04,6.537500000000000000e+04,-3.200000000000000000e+02
6.429400000000000000e+04,6.537500000000000000e+04,3.370000000000000000e+02
6.429400000000000000e+04,6.538400000000000000e+04,3.370000000000000000e+02
6.429400000000000000e+04,6.538400000000000000e+04,3.370000000000000000e+02
6.429400000000000000e+04,6.538400000000000000e+04,3.370000000000000000e+02
6.430000000000000000e+04,6.538400000000000000e+04,1.850000000000000000e+02
6.430000000000000000e+04,6.540300000000000000e+04,1.850000000000000000e+02
6.430000000000000000e+04,6.540300000000000000e+04,1.850000000000000000e+02
6.430000000000000000e+04,6.540300000000000000e+04,1.850000000000000000e+02
6.432000000000000000e+04,6.540300000000000000e+04,-3.290000000000000000e+02
6.432000000000000000e+04,6.544700000000000000e+04,-3.290000000000000000e+02
6.432000000000000000e+04,6.544700000000000000e+04,-3.290000000000000000e+02
6.432000000000000000e+04,6.544700000000000000e+04,-3.290000000000000000e+02
6.433500000000000000e+04,6.544700000000000000e+04,-7.930000000000000000e+02
6.433500000000000000e+04,6.544500000000000000e+04,-7.930000000000000000e+02
6.433500000000000000e+04,6.544500000000000000e+04,-7.930000000000000000e+02
6.433500000000000000e+04,6.544500000000000000e+04,-7.930000000000000000e+02
6.426400000000000000e+04,6.544500000000000000e+04,-5.520000000000000000e+02
6.426400000000000000e+04,6.533400000000000000e+04,-5.520000000000000000e+02
6.426400000000000000e+04,6.533400000000000000e+04,-5.520000000000000000e+02
6.426400000000000000e+04,6.533400000000000000e+04,-5.520000000000000000e+02
6.412400000000000000e+04,6.533400000000000000e+04,-3.260000000000000000e+02
6.412400000000000000e+04,6.509200000000000000e+04,-3.260000000000000000e+02
6.412400000000000000e+04,6.509200000000000000e+04,-3.260000000000000000e+02
6.412400000000000000e+04,6.509200000000000000e+04,-3.260000000000000000e+02
6.400600000000000000e+04,6.509200000000000000e+04,6.130000000000000000e+02
6.400600000000000000e+04,6.484300000000000000e+04,6.130000000000000000e+02
6.400600000000000000e+04,6.484300000000000000e+04,6.130000000000000000e+02
6.400600000000000000e+04,6.484300000000000000e+04,6.130000000000000000e+02
6.389900000000000000e+04,6.484300000000000000e+04,-9.400000000000000000e+02
6.389900000000000000e+04,6.464000000000000000e+04,-9.400000000000000000e+02
6.389900000000000000e+04,6.464000000000000000e+04,-9.400000000000000000e+02
6.389900000000000000e+04,6.464000000000000000e+04,-9.400000000000000000e+02
6.382500000000000000e+04,6.464000000000000000e+04,-1.779000000000000000e+03
6.382500000000000000e+04,6.450600000000000000e+04,-1.779000000000000000e+03
6.382500000000000000e+04,6.450600000000000000e+04,-1.779000000000000000e+03
6.382500000000000000e+04,6.450600000000000000e+04,-1.779000000000000000e+03
6.378800000000000000e+04,6.450600000000000000e+04,-2.087000000000000000e+03
6.378800000000000000e+04,6.445200000000000000e+04,-2.087000000000000000e+03
6.378800000000000000e+04,6.445200000000000000e+04,-2.087000000000000000e+03
6.378800000000000000e+04,6.445200000000000000e+04,-2.087000000000000000e+03
6.380100000000000000e+04,6.445200000000000000e+04,-2.007000000000000000e+03
6.380100000000000000e+04,6.448800000000000000e+04,-2.007000000000000000e+03
6.380100000000000000e+04,6.448800000000000000e+04,-2.007000000000000000e+03
6.380100000000000000e+04,6.448800000000000000e+04,-2.007000000000000000e+03
6.383900000000000000e+04,6.448800000000000000e+04,-2.101000000000000000e+03
6.383900000000000000e+04,6.453700000000000000e+04,-2.101000000000000000e+03
6.383900000000000000e+04,6.453700000000000000e+04,-2.101000000000000000e+03
6.383900000000000000e+04,6.453700000000000000e+04,-2.101000000000000000e+03
6.386500000000000000e+04,6.453700000000000000e+04,-2.633000000000000000e+03
6.386500000000000000e+04,6.458200000000000000e+04,-2.633000000000000000e+03
6.386500000000000000e+04,6.458200000000000000e+04,-2.633000000000000000e+03
6.386500000000000000e+04,6.458200000000000000e+04,-2.633000000000000000e+03
6.385300000000000000e+04,6.458200000000000000e+04,-2.785000000000000000e+03
6.385300000000000000e+04,6.456000000000000000e+04,-2.785000000000000000e+03
6.385300000000000000e+04,6.456000000000000000e+04,-2.785000000000000000e+03
6.385300000000000000e+04,6.456000000000000000e+04,-2.785000000000000000e+03
6.378900000000000000e+04,6.456000000000000000e+04,-2.487000000000000000e+03
6.378900000000000000e+04,6.443300000000000000e+04,-2.487000000000000000e+03
6.378900000000000000e+04,6.443300000000000000e+04,-2.487000000000000000e+03
6.378900000000000000e+04,6.443300000000000000e+04,-2.487000000000000000e+03
6.376100000000000000e+04,6.443300000000000000e+04,-2.018000000000000000e+03
6.376100000000000000e+04,6.437900000000000000e+04,-2.018000000000000000e+03
6.376100000000000000e+04,6.437900000000000000e+04,-2.018000000000000000e+03
6.376100000000000000e+04,6.437900000000000000e+04,-2.018000000000000000e+03
6.374700000000000000e+04,6.437900000000000000e+04,-1.957000000000000000e+03
6.374700000000000000e+04,6.438300000000000000e+04,-1.957000000000000000e+03
6.374700000000000000e+04,6.438300000000000000e+04,-1.957000000000000000e+03
6.374700000000000000e+04,6.438300000000000000e+04,-1.957000000000000000e+03
6.376500000000000000e+04,6.438300000000000000e+04,-2.350000000000000000e+03
6.376500000000000000e+04,6.442100000000000000e+04,-2.350000000000000000e+03
6.376500000000000000e+04,6.442100000000000000e+04,-2.350000000000000000e+03
6.376500000000000000e+04,6.442100000000000000e+04,-2.350000000000000000e+03
6.375900000000000000e+04,6.442100000000000000e+04,-2.429000000000000000e+03
6.375900000000000000e+04,6.441300000000000000e+04,-2.429000000000000000e+03
6.375900000000000000e+04,6.441300000000000000e+04,-2.429000000000000000e+03
6.375900000000000000e+04,6.441300000000000000e+04,-2.429000000000000000e+03
6.369100000000000000e+04,6.441300000000000000e+04,-2.304000000000000000e+03
6.369100000000000000e+04,6.428200000000000000e+04,-2.304000000000000000e+03
6.369100000000000000e+04,6.428200000000000000e+04,-2.304000000000000000e+03
6.369100000000000000e+04,6.428200000000000000e+04,-2.304000000000000000e+03
6.350900000000000000e+04,6.428200000000000000e+04,-1.915000000000000000e+03
6.350900000000000000e+04,6.394300000000000000e+04,-1.915000000000000000e+03
6.350900000000000000e+04,6.394300000000000000e+04,-1.915000000000000000e+03
6.350900000000000000e+04,6.394300000000000000e+04,-1.915000000000000000e+03
6.333900000000000000e+04,6.394300000000000000e+04,-2.086000000000000000e+03
6.333900000000000000e+04,6.362300000000000000e+04,-2.086000000000000000e+03
6.333900000000000000e+04,6.362300000000000000e+04,-2.086000000000000000e+03
6.333900000000000000e+04,6.362300000000000000e+04,-2.086000000000000000e+03
6.321200000000000000e+04,6.362300000000000000e+04,-2.258000000000000000e+03
6.321200000000000000e+04,6.339500000000000000e+04,-2.258000000000000000e+03
6.321200000000000000e+04,6.339500000000000000e+04,-2.258000000000000000e+03
6.321200000000000000e+04,6.339500000000000000e+04,-2.258000000000000000e+03
6.309700000000000000e+04,6.339500000000000000e+04,-2.424000000000000000e+03
6.309700000000000000e+04,6.319800000000000000e+04,-2.424000000000000000e+03
6.309700000000000000e+04,6.319800000000000000e+04,-2.424000000000000000e+03
6.309700000000000000e+04,6.319800000000000000e+04,-2.424000000000000000e+03
6.302000000000000000e+04,6.319800000000000000e+04,-2.109000000000000000e+03
6.302000000000000000e+04,6.306200000000000000e+04,-2.109000000000000000e+03
6.302000000000000000e+04,6.306200000000000000e+04,-2.109000000000000000e+03
6.302000000000000000e+04,6.306200000000000000e+04,-2.109000000000000000e+03
6.293800000000000000e+04,6.306200000000000000e+04,-1.712000000000000000e+03
6.293800000000000000e+04,6.293800000000000000e+04,-1.712000000000000000e+03
6.293800000000000000e+04,6.293800000000000000e+04,-1.712000000000000000e+03
6.293800000000000000e+04,6.293800000000000000e+04,-1.712000000000000000e+03
6.287300000000000000e+04,6.293800000000000000e+04,-1.804000000000000000e+03
6.287300000000000000e+04,6.280300000000000000e+04,-1.804000000000000000e+03
6.287300000000000000e+04,6.280300000000000000e+04,-1.804000000000000000e+03
6.287300000000000000e+04,6.280300000000000000e+04,-1.804000000000000000e+03
6.281000000000000000e+04,6.280300000000000000e+04,-2.063000000000000000e+03
6.281000000000000000e+04,6.269500000000000000e+04,-2.063000000000000000e+03
6.281000000000000000e+04,6.269500000000000000e+04,-2.063000000000000000e+03
6.281000000000000000e+04,6.269500000000000000e+04,-2.063000000000000000e+03
6.279900000000000000e+04,6.269500000000000000e+04,-2.043000000000000000e+03
6.279900000000000000e+04,6.268700000000000000e+04,-2.043000000000000000e+03
6.279900000000000000e+04,6.268700000000000000e+04,-2.043000000000000000e+03
6.279900000000000000e+04,6.268700000000000000e+04,-2.043000000000000000e+03
6.286200000000000000e+04,6.268700000000000000e+04,-1.642000000000000000e+03
6.286200000000000000e+04,6.278500000000000000e+04,-1.642000000000000000e+03
6.286200000000000000e+04,6.278500000000000000e+04,-1.642000000000000000e+03
6.286200000000000000e+04,6.278500000000000000e+04,-1.642000000000000000e+03
6.292500000000000000e+04,6.278500000000000000e+04,-1.170000000000000000e+03
6.292500000000000000e+04,6.291200000000000000e+04,-1.170000000000000000e+03
6.292500000000000000e+04,6.291200000000000000e+04,-1.170000000000000000e+03
6.292500000000000000e+04,6.291200000000000000e+04,-1.170000000000000000e+03
6.291100000000000000e+04,6.291200000000000000e+04,-1.272000000000000000e+03
6.291100000000000000e+04,6.289500000000000000e+04,-1.272000000000000000e+03
6.291100000000000000e+04,6.289500000000000000e+04,-1.272000000000000000e+03
6.291100000000000000e+04,6.289500000000000000e+04,-1.272000000000000000e+03
6.280400000000000000e+04,6.289500000000000000e+04,-1.619000000000000000e+03
6.280400000000000000e+04,6.269400000000000000e+04,-1.619000000000000000e+03
6.280400000000000000e+04,6.269400000000000000e+04,-1.619000000000000000e+03
6.280400000000000000e+04,6.269400000000000000e+04,-1.619000000000000000e+03
6.270500000000000000e+04,6.269400000000000000e+04,-1.653000000000000000e+03
6.270500000000000000e+04,6.251700000000000000e+04,-1.653000000000000000e+03
6.270500000000000000e+04,6.251700000000000000e+04,-1.653000000000000000e+03
6.270500000000000000e+04,6.251700000000000000e+04,-1.653000000000000000e+03
6.269700000000000000e+04,6.251700000000000000e+04,-1.147000000000000000e+03
6.269700000000000000e+04,6.251000000000000000e+04,-1.147000000000000000e+03
6.269700000000000000e+04,6.251000000000000000e+04,-1.147000000000000000e+03
6.269700000000000000e+04,6.251000000000000000e+04,-1.147000000000000000e+03
6.274400000000000000e+04,6.251000000000000000e+04,-1.023000000000000000e+03
6.274400000000000000e+04,6.262000000000000000e+04,-1.023000000000000000e+03
6.274400000000000000e+04,6.262000000000000000e+04,-1.023000000000000000e+03
6.274400000000000000e+04,6.262000000000000000e+04,-1.023000000000000000e+03
6.280100000000000000e+04,6.262000000000000000e+04,-1.232000000000000000e+03
6.280100000000000000e+04,6.271000000000000000e+04,-1.232000000000000000e+03
6.280100000000000000e+04,6.271000000000000000e+04,-1.232000000000000000e+03
6.280100000000000000e+04,6.271000000000000000e+04,-1.232000000000000000e+03
6.278800000000000000e+04,6.271000000000000000e+04,-1.644000000000000000e+03
6.278800000000000000e+04,6.269700000000000000e+04,-1.644000000000000000e+03
6.278800000000000000e+04,6.269700000000000000e+04,-1.644000000000000000e+03
6.278800000000000000e+04,6.269700000000000000e+04,-1.644000000000000000e+03
6.272400000000000000e+04,6.269700000000000000e+04,-1.586000000000000000e+03
6.272400000000000000e+04,6.256000000000000000e+04,-1.586000000000000000e+03
6.272400000000000000e+04,6.256000000000000000e+04,-1.586000000000000000e+03
6.272400000000000000e+04,6.256000000000000000e+04,-1.586000000000000000e+03
6.264700000000000000e+04,6.256000000000000000e+04,-6.020000000000000000e+02
6.264700000000000000e+04,6.242800000000000000e+04,-6.020000000000000000e+02
6.264700000000000000e+04,6.242800000000000000e+04,-6.020000000000000000e+02
6.264700000000000000e+04,6.242800000000000000e+04,-6.020000000000000000e+02
6.264100000000000000e+04,6.242800000000000000e+04,-3.000000000000000000e+02
6.264100000000000000e+04,6.243900000000000000e+04,-3.000000000000000000e+02
6.264100000000000000e+04,6.243900000000000000e+04,-3.000000000000000000e+02
6.264100000000000000e+04,6.243900000000000000e+04,-3.000000000000000000e+02
6.271100000000000000e+04,6.243900000000000000e+04,-9.140000000000000000e+02
6.271100000000000000e+04,6.255900000000000000e+04,-9.140000000000000000e+02
6.271100000000000000e+04,6.255900000000000000e+04,-9.140000000000000000e+02
6.271100000000000000e+04,6.255900000000000000e+04,-9.140000000000000000e+02
6.277800000000000000e+04,6.255900000000000000e+04,-1.251000000000000000e+03
6.277800000000000000e+04,6.266800000000000000e+04,-1.251000000000000000e+03
6.277800000000000000e+04,6.266800000000000000e+04,-1.251000000000000000e+03
6.277800000000000000e+04,6.266800000000000000e+04,-1.251000000000000000e+03
6.287100000000000000e+04,6.266800000000000000e+04,-1.012000000000000000e+03
6.287100000000000000e+04,6.283000000000000000e+04,-1.012000000000000000e+03
6.287100000000000000e+04,6.283000000000000000e+04,-1.012000000000000000e+03
6.287100000000000000e+04,6.283000000000000000e+04,-1.012000000000000000e+03
6.298500000000000000e+04,6.283000000000000000e+04,-4.140000000000000000e+02
6.298500000000000000e+04,6.305000000000000000e+04,-4.140000000000000000e+02
6.298500000000000000e+04,6.305000000000000000e+04,-4.140000000000000000e+02
6.298500000000000000e+04,6.305000000000000000e+04,-4.140000000000000000e+02
6.312400000000000000e+04,6.305000000000000000e+04,-1.730000000000000000e+02
6.312400000000000000e+04,6.328200000000000000e+04,-1.730000000000000000e+02
6.312400000000000000e+04,6.328200000000000000e+04,-1.730000000000000000e+02
6.312400000000000000e+04,6.328200000000000000e+04,-1.730000000000000000e+02
6.324300000000000000e+04,6.328200000000000000e+04,-2.350000000000000000e+02
6.324300000000000000e+04,6.351400000000000000e+04,-2.350000000000000000e+02
6.324300000000000000e+04,6.351400000000000000e+04,-2.350000000000000000e+02
6.324300000000000000e+04,6.351400000000000000e+04,-2.350000000000000000e+02
6.335500000000000000e+04,6.351400000000000000e+04,-5.230000000000000000e+02
6.335500000000000000e+04,6.369200000000000000e+04,-5.230000000000000000e+02
6.335500000000000000e+04,6.369200000000000000e+04,-5.230000000000000000e+02
6.335500000000000000e+04,6.369200000000000000e+04,-5.230000000000000000e+02
6.338100000000000000e+04,6.369200000000000000e+04,-2.460000000000000000e+02
6.338100000000000000e+04,6.373200000000000000e+04,-2.460000000000000000e+02
6.338100000000000000e+04,6.373200000000000000e+04,-2.460000000000000000e+02
6.338100000000000000e+04,6.373200000000000000e+04,-2.460000000000000000e+02
6.339800000000000000e+04,6.373200000000000000e+04,2.630000000000000000e+02
6.339800000000000000e+04,6.379300000000000000e+04,2.630000000000000000e+02
6.339800000000000000e+04,6.379300000000000000e+04,2.630000000000000000e+02
6.339800000000000000e+04,6.379300000000000000e+04,2.630000000000000000e+02
6.347000000000000000e+04,6.379300000000000000e+04,3.920000000000000000e+02
6.347000000000000000e+04,6.393700000000000000e+04,3.920000000000000000e+02
6.347000000000000000e+04,6.393700000000000000e+04,3.920000000000000000e+02
6.347000000000000000e+04,6.393700000000000000e+04,3.920000000000000000e+02
6.359100000000000000e+04,6.393700000000000000e+04,8.400000000000000000e+01
6.359100000000000000e+04,6.413800000000000000e+04,8.400000000000000000e+01
6.359100000000000000e+04,6.413800000000000000e+04,8.400000000000000000e+01
6.359100000000000000e+04,6.413800000000000000e+04,8.400000000000000000e+01
6.367700000000000000e+04,6.413800000000000000e+04,-2.000000000000000000e+02
6.367700000000000000e+04,6.431200000000000000e+04,-2.000000000000000000e+02
6.367700000000000000e+04,6.431200000000000000e+04,-2.000000000000000000e+02
6.367700000000000000e+04,6.431200000000000000e+04,-2.000000000000000000e+02
6.369300000000000000e+04,6.431200000000000000e+04,8.100000000000000000e+01
6.369300000000000000e+04,6.433400000000000000e+04,8.100000000000000000e+01
6.369300000000000000e+04,6.433400000000000000e+04,8.100000000000000000e+01
6.369300000000000000e+04,6.433400000000000000e+04,8.100000000000000000e+01
6.362500000000000000e+04,6.433400000000000000e+04,6.300000000000000000e+02
6.362500000000000000e+04,6.418700000000000000e+04,6.300000000000000000e+02
6.362500000000000000e+04,6.418700000000000000e+04,6.300000000000000000e+02
6.362500000000000000e+04,6.418700000000000000e+04,6.300000000000000000e+02
6.346900000000000000e+04,6.418700000000000000e+04,8.680000000000000000e+02
6.346900000000000000e+04,6.390000000000000000e+04,8.680000000000000000e+02
6.346900000000000000e+04,6.390000000000000000e+04,8.680000000000000000e+02
6.346900000000000000e+04,6.390000000000000000e+04,8.680000000000000000e+02
6.328600000000000000e+04,6.390000000000000000e+04,5.690000000000000000e+02
6.328600000000000000e+04,6.356700000000000000e+04,5.690000000000000000e+02
6.328600000000000000e+04,6.356700000000000000e+04,5.690000000000000000e+02
6.328600000000000000e+04,6.356700000000000000e+04,5.690000000000000000e+02
6.316200000000000000e+04,6.356700000000000000e+04,1.910000000000000000e+02
6.316200000000000000e+04,6.335700000000000000e+04,1.910000000000000000e+02
6.316200000000000000e+04,6.335700000000000000e+04,1.910000000000000000e+02
6.316200000000000000e+04,6.335700000000000000e+04,1.910000000000000000e+02
6.305600000000000000e+04,6.335700000000000000e+04,7.780000000000000000e+02
6.305600000000000000e+04,6.316200000000000000e+04,7.780000000000000000e+02
6.305600000000000000e+04,6.316200000000000000e+04,7.780000000000000000e+02
6.305600000000000000e+04,6.316200000000000000e+04,7.780000000000000000e+02
6.297200000000000000e+04,6.316200000000000000e+04,1.516000000000000000e+03
6.297200000000000000e+04,6.300900000000000000e+04,1.516000000000000000e+03
6.297200000000000000e+04,6.300900000000000000e+04,1.516000000000000000e+03
6.297200000000000000e+04,6.300900000000000000e+04,1.516000000000000000e+03
6.287700000000000000e+04,6.300900000000000000e+04,1.806000000000000000e+03
6.287700000000000000e+04,6.283700000000000000e+04,1.806000000000000000e+03
6.287700000000000000e+04,6.283700000000000000e+04,1.806000000000000000e+03
6.287700000000000000e+04,6.283700000000000000e+04,1.806000000000000000e+03
6.279600000000000000e+04,6.283700000000000000e+04,1.489000000000000000e+03
6.279600000000000000e+04,6.269900000000000000e+04,1.489000000000000000e+03
6.279600000000000000e+04,6.269900000000000000e+04,1.489000000000000000e+03
6.279600000000000000e+04,6.269900000000000000e+04,1.489000000000000000e+03
6.272900000000000000e+04,6.269900000000000000e+04,1.228000000000000000e+03
6.272900000000000000e+04,6.258900000000000000e+04,1.228000000000000000e+03
6.272900000000000000e+04,6.258900000000000000e+04,1.228000000000000000e+03
6.272900000000000000e+04,6.258900000000000000e+04,1.228000000000000000e+03
6.267900000000000000e+04,6.258900000000000000e+04,1.446000000000000000e+03
6.267900000000000000e+04,6.247900000000000000e+04,1.446000000000000000e+03
6.267900000000000000e+04,6.247900000000000000e+04,1.446000000000000000e+03
6.267900000000000000e+04,6.247900000000000000e+04,1.446000000000000000e+03
6.262700000000000000e+04,6.247900000000000000e+04,1.667000000000000000e+03
6.262700000000000000e+04,6.239100000000000000e+04,1.667000000000000000e+03
6.262700000000000000e+04,6.239100000000000000e+04,1.667000000000000000e+03
6.262700000000000000e+04,6.239100000000000000e+04,1.667000000000000000e+03
6.255200000000000000e+04,6.239100000000000000e+04,1.775000000000000000e+03
6.255200000000000000e+04,6.229100000000000000e+04,1.775000000000000000e+03
6.255200000000000000e+04,6.229100000000000000e+04,1.775000000000000000e+03
6.255200000000000000e+04,6.229100000000000000e+04,1.775000000000000000e+03
6.250500000000000000e+04,6.229100000000000000e+04,1.401000000000000000e+03
6.250500000000000000e+04,6.217100000000000000e+04,1.401000000000000000e+03
6.250500000000000000e+04,6.217100000000000000e+04,1.401000000000000000e+03
6.250500000000000000e+04,6.217100000000000000e+04,1.401000000000000000e+03
6.242400000000000000e+04,6.217100000000000000e+04,1.103000000000000000e+03
6.242400000000000000e+04,6.205000000000000000e+04,1.103000000000000000e+03
6.242400000000000000e+04,6.205000000000000000e+04,1.103000000000000000e+03
6.242400000000000000e+04,6.205000000000000000e+04,1.103000000000000000e+03
6.234300000000000000e+04,6.205000000000000000e+04,1.375000000000000000e+03
6.234300000000000000e+04,6.188300000000000000e+04,1.375000000000000000e+03
6.234300000000000000e+04,6.188300000000000000e+04,1.375000000000000000e+03
6.234300000000000000e+04,6.188300000000000000e+04,1.375000000000000000e+03
6.227800000000000000e+04,6.188300000000000000e+04,1.690000000000000000e+03
6.227800000000000000e+04,6.177000000000000000e+04,1.690000000000000000e+03
6.227800000000000000e+04,6.177000000000000000e+04,1.690000000000000000e+03
6.227800000000000000e+04,6.177000000000000000e+04,1.690000000000000000e+03
6.222800000000000000e+04,6.177000000000000000e+04,1.610000000000000000e+03
6.222800000000000000e+04,6.168000000000000000e+04,1.610000000000000000e+03
6.222800000000000000e+04,6.168000000000000000e+04,1.610000000000000000e+03
6.222800000000000000e+04,6.168000000000000000e+04,1.610000000000000000e+03
6.219500000000000000e+04,6.168000000000000000e+04,1.249000000000000000e+03
6.219500000000000000e+04,6.164100000000000000e+04,1.249000000000000000e+03
6.219500000000000000e+04,6.164100000000000000e+04,1.249000000000000000e+03
6.219500000000000000e+04,6.164100000000000000e+04,1.249000000000000000e+03
6.219600000000000000e+04,6.164100000000000000e+04,1.929000000000000000e+03
6.219600000000000000e+04,6.162800000000000000e+04,1.929000000000000000e+03
6.219600000000000000e+04,6.162800000000000000e+04,1.929000000000000000e+03
6.219600000000000000e+04,6.162800000000000000e+04,1.929000000000000000e+03
6.218400000000000000e+04,6.162800000000000000e+04,1.190000000000000000e+03
6.218400000000000000e+04,6.161600000000000000e+04,1.190000000000000000e+03
6.218400000000000000e+04,6.161600000000000000e+04,1.190000000000000000e+03
6.218400000000000000e+04,6.161600000000000000e+04,1.190000000000000000e+03
6.216600000000000000e+04,6.161600000000000000e+04,1.467000000000000000e+03
6.216600000000000000e+04,6.157100000000000000e+04,1.467000000000000000e+03
6.216600000000000000e+04,6.157100000000000000e+04,1.467000000000000000e+03
6.216600000000000000e+04,6.157100000000000000e+04,1.467000000000000000e+03
6.211500000000000000e+04,6.157100000000000000e+04,1.346000000000000000e+03
6.211500000000000000e+04,6.148000000000000000e+04,1.346000000000000000e+03
6.211500000000000000e+04,6.148000000000000000e+04,1.346000000000000000e+03
6.211500000000000000e+04,6.148000000000000000e+04,1.346000000000000000e+03
6.205000000000000000e+04,6.148000000000000000e+04,8.560000000000000000e+02
