6.038700000000000000e+04,4.644000000000000000e+03,1.323000000000000000e+03
6.038700000000000000e+04,4.644000000000000000e+03,1.323000000000000000e+03
6.038700000000000000e+04,4.644000000000000000e+03,1.323000000000000000e+03
6.039300000000000000e+04,4.644000000000000000e+03,1.114000000000000000e+03
6.039300000000000000e+04,4.657000000000000000e+03,1.114000000000000000e+03
6.039300000000000000e+04,4.657000000000000000e+03,1.114000000000000000e+03
6.039300000000000000e+04,4.657000000000000000e+03,1.114000000000000000e+03
6.038900000000000000e+04,4.657000000000000000e+03,8.830000000000000000e+02
6.038900000000000000e+04,4.646000000000000000e+03,8.830000000000000000e+02
6.038900000000000000e+04,4.646000000000000000e+03,8.830000000000000000e+02
6.038900000000000000e+04,4.646000000000000000e+03,8.830000000000000000e+02
6.038200000000000000e+04,4.646000000000000000e+03,8.830000000000000000e+02
6.038200000000000000e+04,4.632000000000000000e+03,8.830000000000000000e+02
6.038200000000000000e+04,4.632000000000000000e+03,8.830000000000000000e+02
6.038200000000000000e+04,4.632000000000000000e+03,8.830000000000000000e+02
6.037800000000000000e+04,4.632000000000000000e+03,9.870000000000000000e+02
6.037800000000000000e+04,4.627000000000000000e+03,9.870000000000000000e+02
6.037800000000000000e+04,4.627000000000000000e+03,9.870000000000000000e+02
6.037800000000000000e+04,4.627000000000000000e+03,9.870000000000000000e+02
6.037200000000000000e+04,4.627000000000000000e+03,1.192000000000000000e+03
6.037200000000000000e+04,4.626000000000000000e+03,1.192000000000000000e+03
6.037200000000000000e+04,4.626000000000000000e+03,1.192000000000000000e+03
6.037200000000000000e+04,4.626000000000000000e+03,1.192000000000000000e+03
6.036600000000000000e+04,4.626000000000000000e+03,9.480000000000000000e+02
6.036600000000000000e+04,4.624000000000000000e+03,9.480000000000000000e+02
6.036600000000000000e+04,4.624000000000000000e+03,9.480000000000000000e+02
6.036600000000000000e+04,4.624000000000000000e+03,9.480000000000000000e+02
6.036100000000000000e+04,4.624000000000000000e+03,7.390000000000000000e+02
6.036100000000000000e+04,4.631000000000000000e+03,7.390000000000000000e+02
6.036100000000000000e+04,4.631000000000000000e+03,7.390000000000000000e+02
6.036100000000000000e+04,4.631000000000000000e+03,7.390000000000000000e+02
6.036500000000000000e+04,4.631000000000000000e+03,5.770000000000000000e+02
6.036500000000000000e+04,4.653000000000000000e+03,5.770000000000000000e+02
6.036500000000000000e+04,4.653000000000000000e+03,5.770000000000000000e+02
6.036500000000000000e+04,4.653000000000000000e+03,5.770000000000000000e+02
6.036600000000000000e+04,4.653000000000000000e+03,8.120000000000000000e+02
6.036600000000000000e+04,4.648000000000000000e+03,8.120000000000000000e+02
6.036600000000000000e+04,4.648000000000000000e+03,8.120000000000000000e+02
6.036600000000000000e+04,4.648000000000000000e+03,8.120000000000000000e+02
6.036200000000000000e+04,4.648000000000000000e+03,1.088000000000000000e+03
6.036200000000000000e+04,4.647000000000000000e+03,1.088000000000000000e+03
6.036200000000000000e+04,4.647000000000000000e+03,1.088000000000000000e+03
6.036200000000000000e+04,4.647000000000000000e+03,1.088000000000000000e+03
6.036700000000000000e+04,4.647000000000000000e+03,1.830000000000000000e+03
6.036700000000000000e+04,4.649000000000000000e+03,1.830000000000000000e+03
6.036700000000000000e+04,4.649000000000000000e+03,1.830000000000000000e+03
6.036700000000000000e+04,4.649000000000000000e+03,1.830000000000000000e+03
6.036500000000000000e+04,4.649000000000000000e+03,5.020000000000000000e+02
6.036500000000000000e+04,4.640000000000000000e+03,5.020000000000000000e+02
6.036500000000000000e+04,4.640000000000000000e+03,5.020000000000000000e+02
6.036500000000000000e+04,4.640000000000000000e+03,5.020000000000000000e+02
6.038300000000000000e+04,4.640000000000000000e+03,4.580000000000000000e+02
6.038300000000000000e+04,4.624000000000000000e+03,4.580000000000000000e+02
6.038300000000000000e+04,4.624000000000000000e+03,4.580000000000000000e+02
6.038300000000000000e+04,4.624000000000000000e+03,4.580000000000000000e+02
6.037200000000000000e+04,4.624000000000000000e+03,5.040000000000000000e+02
6.037200000000000000e+04,4.626000000000000000e+03,5.040000000000000000e+02
6.037200000000000000e+04,4.626000000000000000e+03,5.040000000000000000e+02
6.037200000000000000e+04,4.626000000000000000e+03,5.040000000000000000e+02
6.039200000000000000e+04,4.626000000000000000e+03,4.040000000000000000e+02
6.039200000000000000e+04,4.622000000000000000e+03,4.040000000000000000e+02
6.039200000000000000e+04,4.622000000000000000e+03,4.040000000000000000e+02
6.039200000000000000e+04,4.622000000000000000e+03,4.040000000000000000e+02
6.039400000000000000e+04,4.622000000000000000e+03,3.200000000000000000e+02
6.039400000000000000e+04,4.604000000000000000e+03,3.200000000000000000e+02
6.039400000000000000e+04,4.604000000000000000e+03,3.200000000000000000e+02
6.039400000000000000e+04,4.604000000000000000e+03,3.200000000000000000e+02
6.039900000000000000e+04,4.604000000000000000e+03,-1.000000000000000000e+02
6.039900000000000000e+04,4.610000000000000000e+03,-1.000000000000000000e+02
6.039900000000000000e+04,4.610000000000000000e+03,-1.000000000000000000e+02
6.039900000000000000e+04,4.610000000000000000e+03,-1.000000000000000000e+02
6.040600000000000000e+04,4.610000000000000000e+03,-2.000000000000000000e+00
6.040600000000000000e+04,4.578000000000000000e+03,-2.000000000000000000e+00
6.040600000000000000e+04,4.578000000000000000e+03,-2.000000000000000000e+00
6.040600000000000000e+04,4.578000000000000000e+03,-2.000000000000000000e+00
6.040600000000000000e+04,4.578000000000000000e+03,1.880000000000000000e+02
6.040600000000000000e+04,4.581000000000000000e+03,1.880000000000000000e+02
6.040600000000000000e+04,4.581000000000000000e+03,1.880000000000000000e+02
6.040600000000000000e+04,4.581000000000000000e+03,1.880000000000000000e+02
6.040800000000000000e+04,4.581000000000000000e+03,4.130000000000000000e+02
6.040800000000000000e+04,4.589000000000000000e+03,4.130000000000000000e+02
6.040800000000000000e+04,4.589000000000000000e+03,4.130000000000000000e+02
6.040800000000000000e+04,4.589000000000000000e+03,4.130000000000000000e+02
6.040900000000000000e+04,4.589000000000000000e+03,3.250000000000000000e+02
6.040900000000000000e+04,4.574000000000000000e+03,3.250000000000000000e+02
6.040900000000000000e+04,4.574000000000000000e+03,3.250000000000000000e+02
6.040900000000000000e+04,4.574000000000000000e+03,3.250000000000000000e+02
6.040000000000000000e+04,4.574000000000000000e+03,2.700000000000000000e+02
6.040000000000000000e+04,4.573000000000000000e+03,2.700000000000000000e+02
6.040000000000000000e+04,4.573000000000000000e+03,2.700000000000000000e+02
6.040000000000000000e+04,4.573000000000000000e+03,2.700000000000000000e+02
6.035900000000000000e+04,4.573000000000000000e+03,3.990000000000000000e+02
6.035900000000000000e+04,4.530000000000000000e+03,3.990000000000000000e+02
6.035900000000000000e+04,4.530000000000000000e+03,3.990000000000000000e+02
6.035900000000000000e+04,4.530000000000000000e+03,3.990000000000000000e+02
6.034300000000000000e+04,4.530000000000000000e+03,5.850000000000000000e+02
6.034300000000000000e+04,4.497000000000000000e+03,5.850000000000000000e+02
6.034300000000000000e+04,4.497000000000000000e+03,5.850000000000000000e+02
6.034300000000000000e+04,4.497000000000000000e+03,5.850000000000000000e+02
6.033700000000000000e+04,4.497000000000000000e+03,3.750000000000000000e+02
6.033700000000000000e+04,4.481000000000000000e+03,3.750000000000000000e+02
6.033700000000000000e+04,4.481000000000000000e+03,3.750000000000000000e+02
6.033700000000000000e+04,4.481000000000000000e+03,3.750000000000000000e+02
6.032500000000000000e+04,4.481000000000000000e+03,2.900000000000000000e+01
6.032500000000000000e+04,4.494000000000000000e+03,2.900000000000000000e+01
6.032500000000000000e+04,4.494000000000000000e+03,2.900000000000000000e+01
6.032500000000000000e+04,4.494000000000000000e+03,2.900000000000000000e+01
6.032800000000000000e+04,4.494000000000000000e+03,3.700000000000000000e+01
6.032800000000000000e+04,4.492000000000000000e+03,3.700000000000000000e+01
6.032800000000000000e+04,4.492000000000000000e+03,3.700000000000000000e+01
6.032800000000000000e+04,4.492000000000000000e+03,3.700000000000000000e+01
6.033600000000000000e+04,4.492000000000000000e+03,8.400000000000000000e+01
6.033600000000000000e+04,4.486000000000000000e+03,8.400000000000000000e+01
6.033600000000000000e+04,4.486000000000000000e+03,8.400000000000000000e+01
6.033600000000000000e+04,4.486000000000000000e+03,8.400000000000000000e+01
6.034400000000000000e+04,4.486000000000000000e+03,2.100000000000000000e+02
6.034400000000000000e+04,4.495000000000000000e+03,2.100000000000000000e+02
6.034400000000000000e+04,4.495000000000000000e+03,2.100000000000000000e+02
6.034400000000000000e+04,4.495000000000000000e+03,2.100000000000000000e+02
6.035100000000000000e+04,4.495000000000000000e+03,4.430000000000000000e+02
6.035100000000000000e+04,4.487000000000000000e+03,4.430000000000000000e+02
6.035100000000000000e+04,4.487000000000000000e+03,4.430000000000000000e+02
6.035100000000000000e+04,4.487000000000000000e+03,4.430000000000000000e+02
6.036000000000000000e+04,4.487000000000000000e+03,1.220000000000000000e+02
6.036000000000000000e+04,4.497000000000000000e+03,1.220000000000000000e+02
6.036000000000000000e+04,4.497000000000000000e+03,1.220000000000000000e+02
6.036000000000000000e+04,4.497000000000000000e+03,1.220000000000000000e+02
6.036600000000000000e+04,4.497000000000000000e+03,-1.400000000000000000e+01
6.036600000000000000e+04,4.495000000000000000e+03,-1.400000000000000000e+01
6.036600000000000000e+04,4.495000000000000000e+03,-1.400000000000000000e+01
6.036600000000000000e+04,4.495000000000000000e+03,-1.400000000000000000e+01
6.036400000000000000e+04,4.495000000000000000e+03,1.630000000000000000e+02
6.036400000000000000e+04,4.487000000000000000e+03,1.630000000000000000e+02
6.036400000000000000e+04,4.487000000000000000e+03,1.630000000000000000e+02
6.036400000000000000e+04,4.487000000000000000e+03,1.630000000000000000e+02
6.036100000000000000e+04,4.487000000000000000e+03,3.670000000000000000e+02
6.036100000000000000e+04,4.491000000000000000e+03,3.670000000000000000e+02
6.036100000000000000e+04,4.491000000000000000e+03,3.670000000000000000e+02
6.036100000000000000e+04,4.491000000000000000e+03,3.670000000000000000e+02
6.036100000000000000e+04,4.491000000000000000e+03,3.920000000000000000e+02
6.036100000000000000e+04,4.474000000000000000e+03,3.920000000000000000e+02
6.036100000000000000e+04,4.474000000000000000e+03,3.920000000000000000e+02
6.036100000000000000e+04,4.474000000000000000e+03,3.920000000000000000e+02
6.035000000000000000e+04,4.474000000000000000e+03,3.370000000000000000e+02
6.035000000000000000e+04,4.480000000000000000e+03,3.370000000000000000e+02
6.035000000000000000e+04,4.480000000000000000e+03,3.370000000000000000e+02
6.035000000000000000e+04,4.480000000000000000e+03,3.370000000000000000e+02
6.035000000000000000e+04,4.480000000000000000e+03,4.970000000000000000e+02
6.035000000000000000e+04,4.462000000000000000e+03,4.970000000000000000e+02
6.035000000000000000e+04,4.462000000000000000e+03,4.970000000000000000e+02
6.035000000000000000e+04,4.462000000000000000e+03,4.970000000000000000e+02
6.034400000000000000e+04,4.462000000000000000e+03,6.780000000000000000e+02
6.034400000000000000e+04,4.459000000000000000e+03,6.780000000000000000e+02
6.034400000000000000e+04,4.459000000000000000e+03,6.780000000000000000e+02
6.034400000000000000e+04,4.459000000000000000e+03,6.780000000000000000e+02
6.034000000000000000e+04,4.459000000000000000e+03,1.029000000000000000e+03
6.034000000000000000e+04,4.446000000000000000e+03,1.029000000000000000e+03
6.034000000000000000e+04,4.446000000000000000e+03,1.029000000000000000e+03
6.034000000000000000e+04,4.446000000000000000e+03,1.029000000000000000e+03
6.035100000000000000e+04,4.446000000000000000e+03,9.030000000000000000e+02
6.035100000000000000e+04,4.454000000000000000e+03,9.030000000000000000e+02
6.035100000000000000e+04,4.454000000000000000e+03,9.030000000000000000e+02
6.035100000000000000e+04,4.454000000000000000e+03,9.030000000000000000e+02
6.034700000000000000e+04,4.454000000000000000e+03,8.030000000000000000e+02
6.034700000000000000e+04,4.456000000000000000e+03,8.030000000000000000e+02
6.034700000000000000e+04,4.456000000000000000e+03,8.030000000000000000e+02
6.034700000000000000e+04,4.456000000000000000e+03,8.030000000000000000e+02
6.034700000000000000e+04,4.456000000000000000e+03,9.510000000000000000e+02
6.034700000000000000e+04,4.447000000000000000e+03,9.510000000000000000e+02
6.034700000000000000e+04,4.447000000000000000e+03,9.510000000000000000e+02
6.034700000000000000e+04,4.447000000000000000e+03,9.510000000000000000e+02
6.035400000000000000e+04,4.447000000000000000e+03,8.670000000000000000e+02
6.035400000000000000e+04,4.457000000000000000e+03,8.670000000000000000e+02
6.035400000000000000e+04,4.457000000000000000e+03,8.670000000000000000e+02
6.035400000000000000e+04,4.457000000000000000e+03,8.670000000000000000e+02
6.035600000000000000e+04,4.457000000000000000e+03,1.763000000000000000e+03
6.035600000000000000e+04,4.456000000000000000e+03,1.763000000000000000e+03
6.035600000000000000e+04,4.456000000000000000e+03,1.763000000000000000e+03
6.035600000000000000e+04,4.456000000000000000e+03,1.763000000000000000e+03
6.035500000000000000e+04,4.456000000000000000e+03,1.781000000000000000e+03
6.035500000000000000e+04,4.432000000000000000e+03,1.781000000000000000e+03
6.035500000000000000e+04,4.432000000000000000e+03,1.781000000000000000e+03
6.035500000000000000e+04,4.432000000000000000e+03,1.781000000000000000e+03
6.036200000000000000e+04,4.432000000000000000e+03,7.990000000000000000e+02
6.036200000000000000e+04,4.441000000000000000e+03,7.990000000000000000e+02
6.036200000000000000e+04,4.441000000000000000e+03,7.990000000000000000e+02
6.036200000000000000e+04,4.441000000000000000e+03,7.990000000000000000e+02
6.036300000000000000e+04,4.441000000000000000e+03,6.380000000000000000e+02
6.036300000000000000e+04,4.425000000000000000e+03,6.380000000000000000e+02
6.036300000000000000e+04,4.425000000000000000e+03,6.380000000000000000e+02
6.036300000000000000e+04,4.425000000000000000e+03,6.380000000000000000e+02
6.035400000000000000e+04,4.425000000000000000e+03,7.350000000000000000e+02
6.035400000000000000e+04,4.438000000000000000e+03,7.350000000000000000e+02
6.035400000000000000e+04,4.438000000000000000e+03,7.350000000000000000e+02
6.035400000000000000e+04,4.438000000000000000e+03,7.350000000000000000e+02
6.036100000000000000e+04,4.438000000000000000e+03,6.870000000000000000e+02
6.036100000000000000e+04,4.414000000000000000e+03,6.870000000000000000e+02
6.036100000000000000e+04,4.414000000000000000e+03,6.870000000000000000e+02
6.036100000000000000e+04,4.414000000000000000e+03,6.870000000000000000e+02
6.037200000000000000e+04,4.414000000000000000e+03,3.900000000000000000e+02
6.037200000000000000e+04,4.424000000000000000e+03,3.900000000000000000e+02
6.037200000000000000e+04,4.424000000000000000e+03,3.900000000000000000e+02
6.037200000000000000e+04,4.424000000000000000e+03,3.900000000000000000e+02
6.037900000000000000e+04,4.424000000000000000e+03,2.980000000000000000e+02
6.037900000000000000e+04,4.412000000000000000e+03,2.980000000000000000e+02
6.037900000000000000e+04,4.412000000000000000e+03,2.980000000000000000e+02
6.037900000000000000e+04,4.412000000000000000e+03,2.980000000000000000e+02
6.037700000000000000e+04,4.412000000000000000e+03,4.730000000000000000e+02
6.037700000000000000e+04,4.410000000000000000e+03,4.730000000000000000e+02
6.037700000000000000e+04,4.410000000000000000e+03,4.730000000000000000e+02
6.037700000000000000e+04,4.410000000000000000e+03,4.730000000000000000e+02
6.038500000000000000e+04,4.410000000000000000e+03,5.140000000000000000e+02
6.038500000000000000e+04,4.416000000000000000e+03,5.140000000000000000e+02
6.038500000000000000e+04,4.416000000000000000e+03,5.140000000000000000e+02
6.038500000000000000e+04,4.416000000000000000e+03,5.140000000000000000e+02
6.038600000000000000e+04,4.416000000000000000e+03,6.850000000000000000e+02
6.038600000000000000e+04,4.410000000000000000e+03,6.850000000000000000e+02
6.038600000000000000e+04,4.410000000000000000e+03,6.850000000000000000e+02
6.038600000000000000e+04,4.410000000000000000e+03,6.850000000000000000e+02
6.037400000000000000e+04,4.410000000000000000e+03,6.420000000000000000e+02
6.037400000000000000e+04,4.379000000000000000e+03,6.420000000000000000e+02
6.037400000000000000e+04,4.379000000000000000e+03,6.420000000000000000e+02
6.037400000000000000e+04,4.379000000000000000e+03,6.420000000000000000e+02
6.035000000000000000e+04,4.379000000000000000e+03,5.730000000000000000e+02
6.035000000000000000e+04,4.336000000000000000e+03,5.730000000000000000e+02
6.035000000000000000e+04,4.336000000000000000e+03,5.730000000000000000e+02
6.035000000000000000e+04,4.336000000000000000e+03,5.730000000000000000e+02
6.033400000000000000e+04,4.336000000000000000e+03,4.030000000000000000e+02
6.033400000000000000e+04,4.291000000000000000e+03,4.030000000000000000e+02
6.033400000000000000e+04,4.291000000000000000e+03,4.030000000000000000e+02
6.033400000000000000e+04,4.291000000000000000e+03,4.030000000000000000e+02
6.033400000000000000e+04,4.291000000000000000e+03,3.940000000000000000e+02
6.033400000000000000e+04,4.263000000000000000e+03,3.940000000000000000e+02
6.033400000000000000e+04,4.263000000000000000e+03,3.940000000000000000e+02
6.033400000000000000e+04,4.263000000000000000e+03,3.940000000000000000e+02
6.033500000000000000e+04,4.263000000000000000e+03,3.950000000000000000e+02
6.033500000000000000e+04,4.260000000000000000e+03,3.950000000000000000e+02
6.033500000000000000e+04,4.260000000000000000e+03,3.950000000000000000e+02
6.033500000000000000e+04,4.260000000000000000e+03,3.950000000000000000e+02
6.034400000000000000e+04,4.260000000000000000e+03,4.890000000000000000e+02
6.034400000000000000e+04,4.266000000000000000e+03,4.890000000000000000e+02
6.034400000000000000e+04,4.266000000000000000e+03,4.890000000000000000e+02
6.034400000000000000e+04,4.266000000000000000e+03,4.890000000000000000e+02
6.033800000000000000e+04,4.266000000000000000e+03,2.560000000000000000e+02
6.033800000000000000e+04,4.259000000000000000e+03,2.560000000000000000e+02
6.033800000000000000e+04,4.259000000000000000e+03,2.560000000000000000e+02
6.033800000000000000e+04,4.259000000000000000e+03,2.560000000000000000e+02
6.035300000000000000e+04,4.259000000000000000e+03,3.830000000000000000e+02
6.035300000000000000e+04,4.273000000000000000e+03,3.830000000000000000e+02
6.035300000000000000e+04,4.273000000000000000e+03,3.830000000000000000e+02
6.035300000000000000e+04,4.273000000000000000e+03,3.830000000000000000e+02
6.034600000000000000e+04,4.273000000000000000e+03,7.810000000000000000e+02
6.034600000000000000e+04,4.273000000000000000e+03,7.810000000000000000e+02
6.034600000000000000e+04,4.273000000000000000e+03,7.810000000000000000e+02
6.034600000000000000e+04,4.273000000000000000e+03,7.810000000000000000e+02
6.034100000000000000e+04,4.273000000000000000e+03,6.740000000000000000e+02
6.034100000000000000e+04,4.280000000000000000e+03,6.740000000000000000e+02
6.034100000000000000e+04,4.280000000000000000e+03,6.740000000000000000e+02
6.034100000000000000e+04,4.280000000000000000e+03,6.740000000000000000e+02
6.033500000000000000e+04,4.280000000000000000e+03,4.410000000000000000e+02
6.033500000000000000e+04,4.279000000000000000e+03,4.410000000000000000e+02
6.033500000000000000e+04,4.279000000000000000e+03,4.410000000000000000e+02
6.033500000000000000e+04,4.279000000000000000e+03,4.410000000000000000e+02
6.033600000000000000e+04,4.279000000000000000e+03,2.690000000000000000e+02
6.033600000000000000e+04,4.271000000000000000e+03,2.690000000000000000e+02
6.033600000000000000e+04,4.271000000000000000e+03,2.690000000000000000e+02
6.033600000000000000e+04,4.271000000000000000e+03,2.690000000000000000e+02
6.032000000000000000e+04,4.271000000000000000e+03,2.370000000000000000e+02
6.032000000000000000e+04,4.283000000000000000e+03,2.370000000000000000e+02
6.032000000000000000e+04,4.283000000000000000e+03,2.370000000000000000e+02
6.032000000000000000e+04,4.283000000000000000e+03,2.370000000000000000e+02
6.032800000000000000e+04,4.283000000000000000e+03,4.010000000000000000e+02
6.032800000000000000e+04,4.281000000000000000e+03,4.010000000000000000e+02
6.032800000000000000e+04,4.281000000000000000e+03,4.010000000000000000e+02
6.032800000000000000e+04,4.281000000000000000e+03,4.010000000000000000e+02
6.032600000000000000e+04,4.281000000000000000e+03,5.070000000000000000e+02
6.032600000000000000e+04,4.276000000000000000e+03,5.070000000000000000e+02
6.032600000000000000e+04,4.276000000000000000e+03,5.070000000000000000e+02
6.032600000000000000e+04,4.276000000000000000e+03,5.070000000000000000e+02
6.033000000000000000e+04,4.276000000000000000e+03,4.330000000000000000e+02
6.033000000000000000e+04,4.268000000000000000e+03,4.330000000000000000e+02
6.033000000000000000e+04,4.268000000000000000e+03,4.330000000000000000e+02
6.033000000000000000e+04,4.268000000000000000e+03,4.330000000000000000e+02
6.031800000000000000e+04,4.268000000000000000e+03,5.650000000000000000e+02
6.031800000000000000e+04,4.286000000000000000e+03,5.650000000000000000e+02
6.031800000000000000e+04,4.286000000000000000e+03,5.650000000000000000e+02
6.031800000000000000e+04,4.286000000000000000e+03,5.650000000000000000e+02
6.032300000000000000e+04,4.286000000000000000e+03,6.680000000000000000e+02
6.032300000000000000e+04,4.272000000000000000e+03,6.680000000000000000e+02
6.032300000000000000e+04,4.272000000000000000e+03,6.680000000000000000e+02
6.032300000000000000e+04,4.272000000000000000e+03,6.680000000000000000e+02
6.031900000000000000e+04,4.272000000000000000e+03,9.410000000000000000e+02
6.031900000000000000e+04,4.275000000000000000e+03,9.410000000000000000e+02
6.031900000000000000e+04,4.275000000000000000e+03,9.410000000000000000e+02
6.031900000000000000e+04,4.275000000000000000e+03,9.410000000000000000e+02
6.030100000000000000e+04,4.275000000000000000e+03,9.420000000000000000e+02
6.030100000000000000e+04,4.272000000000000000e+03,9.420000000000000000e+02
6.030100000000000000e+04,4.272000000000000000e+03,9.420000000000000000e+02
6.030100000000000000e+04,4.272000000000000000e+03,9.420000000000000000e+02
6.030500000000000000e+04,4.272000000000000000e+03,6.940000000000000000e+02
6.030500000000000000e+04,4.294000000000000000e+03,6.940000000000000000e+02
6.030500000000000000e+04,4.294000000000000000e+03,6.940000000000000000e+02
6.030500000000000000e+04,4.294000000000000000e+03,6.940000000000000000e+02
6.029900000000000000e+04,4.294000000000000000e+03,7.300000000000000000e+02
6.029900000000000000e+04,4.317000000000000000e+03,7.300000000000000000e+02
6.029900000000000000e+04,4.317000000000000000e+03,7.300000000000000000e+02
6.029900000000000000e+04,4.317000000000000000e+03,7.300000000000000000e+02
6.029700000000000000e+04,4.317000000000000000e+03,5.850000000000000000e+02
6.029700000000000000e+04,4.340000000000000000e+03,5.850000000000000000e+02
6.029700000000000000e+04,4.340000000000000000e+03,5.850000000000000000e+02
6.029700000000000000e+04,4.340000000000000000e+03,5.850000000000000000e+02
6.029000000000000000e+04,4.340000000000000000e+03,1.080000000000000000e+03
6.029000000000000000e+04,4.351000000000000000e+03,1.080000000000000000e+03
6.029000000000000000e+04,4.351000000000000000e+03,1.080000000000000000e+03
6.029000000000000000e+04,4.351000000000000000e+03,1.080000000000000000e+03
6.029500000000000000e+04,4.351000000000000000e+03,1.740000000000000000e+03
6.029500000000000000e+04,4.372000000000000000e+03,1.740000000000000000e+03
6.029500000000000000e+04,4.372000000000000000e+03,1.740000000000000000e+03
6.029500000000000000e+04,4.372000000000000000e+03,1.740000000000000000e+03
6.028500000000000000e+04,4.372000000000000000e+03,8.720000000000000000e+02
6.028500000000000000e+04,4.386000000000000000e+03,8.720000000000000000e+02
6.028500000000000000e+04,4.386000000000000000e+03,8.720000000000000000e+02
6.028500000000000000e+04,4.386000000000000000e+03,8.720000000000000000e+02
6.028900000000000000e+04,4.386000000000000000e+03,4.410000000000000000e+02
6.028900000000000000e+04,4.390000000000000000e+03,4.410000000000000000e+02
6.028900000000000000e+04,4.390000000000000000e+03,4.410000000000000000e+02
6.028900000000000000e+04,4.390000000000000000e+03,4.410000000000000000e+02
6.028900000000000000e+04,4.390000000000000000e+03,6.730000000000000000e+02
6.028900000000000000e+04,4.401000000000000000e+03,6.730000000000000000e+02
6.028900000000000000e+04,4.401000000000000000e+03,6.730000000000000000e+02
6.028900000000000000e+04,4.401000000000000000e+03,6.730000000000000000e+02
6.028300000000000000e+04,4.401000000000000000e+03,7.120000000000000000e+02
6.028300000000000000e+04,4.419000000000000000e+03,7.120000000000000000e+02
6.028300000000000000e+04,4.419000000000000000e+03,7.120000000000000000e+02
6.028300000000000000e+04,4.419000000000000000e+03,7.120000000000000000e+02
6.028600000000000000e+04,4.419000000000000000e+03,7.070000000000000000e+02
6.028600000000000000e+04,4.427000000000000000e+03,7.070000000000000000e+02
6.028600000000000000e+04,4.427000000000000000e+03,7.070000000000000000e+02
6.028600000000000000e+04,4.427000000000000000e+03,7.070000000000000000e+02
6.028300000000000000e+04,4.427000000000000000e+03,4.830000000000000000e+02
6.028300000000000000e+04,4.445000000000000000e+03,4.830000000000000000e+02
6.028300000000000000e+04,4.445000000000000000e+03,4.830000000000000000e+02
6.028300000000000000e+04,4.445000000000000000e+03,4.830000000000000000e+02
6.029100000000000000e+04,4.445000000000000000e+03,5.110000000000000000e+02
6.029100000000000000e+04,4.458000000000000000e+03,5.110000000000000000e+02
6.029100000000000000e+04,4.458000000000000000e+03,5.110000000000000000e+02
6.029100000000000000e+04,4.458000000000000000e+03,5.110000000000000000e+02
6.028500000000000000e+04,4.458000000000000000e+03,6.160000000000000000e+02
6.028500000000000000e+04,4.449000000000000000e+03,6.160000000000000000e+02
6.028500000000000000e+04,4.449000000000000000e+03,6.160000000000000000e+02
6.028500000000000000e+04,4.449000000000000000e+03,6.160000000000000000e+02
6.030500000000000000e+04,4.449000000000000000e+03,8.480000000000000000e+02
6.030500000000000000e+04,4.465000000000000000e+03,8.480000000000000000e+02
6.030500000000000000e+04,4.465000000000000000e+03,8.480000000000000000e+02
6.030500000000000000e+04,4.465000000000000000e+03,8.480000000000000000e+02
6.029600000000000000e+04,4.465000000000000000e+03,7.150000000000000000e+02
6.029600000000000000e+04,4.456000000000000000e+03,7.150000000000000000e+02
6.029600000000000000e+04,4.456000000000000000e+03,7.150000000000000000e+02
6.029600000000000000e+04,4.456000000000000000e+03,7.150000000000000000e+02
6.029500000000000000e+04,4.456000000000000000e+03,6.500000000000000000e+02
6.029500000000000000e+04,4.414000000000000000e+03,6.500000000000000000e+02
6.029500000000000000e+04,4.414000000000000000e+03,6.500000000000000000e+02
6.029500000000000000e+04,4.414000000000000000e+03,6.500000000000000000e+02
6.026500000000000000e+04,4.414000000000000000e+03,6.180000000000000000e+02
6.026500000000000000e+04,4.364000000000000000e+03,6.180000000000000000e+02
6.026500000000000000e+04,4.364000000000000000e+03,6.180000000000000000e+02
6.026500000000000000e+04,4.364000000000000000e+03,6.180000000000000000e+02
6.025800000000000000e+04,4.364000000000000000e+03,3.260000000000000000e+02
6.025800000000000000e+04,4.304000000000000000e+03,3.260000000000000000e+02
6.025800000000000000e+04,4.304000000000000000e+03,3.260000000000000000e+02
6.025800000000000000e+04,4.304000000000000000e+03,3.260000000000000000e+02
6.025800000000000000e+04,4.304000000000000000e+03,3.960000000000000000e+02
6.025800000000000000e+04,4.281000000000000000e+03,3.960000000000000000e+02
6.025800000000000000e+04,4.281000000000000000e+03,3.960000000000000000e+02
6.025800000000000000e+04,4.281000000000000000e+03,3.960000000000000000e+02
6.026400000000000000e+04,4.281000000000000000e+03,2.260000000000000000e+02
6.026400000000000000e+04,4.288000000000000000e+03,2.260000000000000000e+02
6.026400000000000000e+04,4.288000000000000000e+03,2.260000000000000000e+02
6.026400000000000000e+04,4.288000000000000000e+03,2.260000000000000000e+02
6.026000000000000000e+04,4.288000000000000000e+03,-9.500000000000000000e+01
6.026000000000000000e+04,4.297000000000000000e+03,-9.500000000000000000e+01
6.026000000000000000e+04,4.297000000000000000e+03,-9.500000000000000000e+01
6.026000000000000000e+04,4.297000000000000000e+03,-9.500000000000000000e+01
6.025900000000000000e+04,4.297000000000000000e+03,1.500000000000000000e+01
6.025900000000000000e+04,4.314000000000000000e+03,1.500000000000000000e+01
6.025900000000000000e+04,4.314000000000000000e+03,1.500000000000000000e+01
6.025900000000000000e+04,4.314000000000000000e+03,1.500000000000000000e+01
6.026400000000000000e+04,4.314000000000000000e+03,2.140000000000000000e+02
6.026400000000000000e+04,4.298000000000000000e+03,2.140000000000000000e+02
6.026400000000000000e+04,4.298000000000000000e+03,2.140000000000000000e+02
6.026400000000000000e+04,4.298000000000000000e+03,2.140000000000000000e+02
6.026000000000000000e+04,4.298000000000000000e+03,9.000000000000000000e+01
6.026000000000000000e+04,4.314000000000000000e+03,9.000000000000000000e+01
6.026000000000000000e+04,4.314000000000000000e+03,9.000000000000000000e+01
6.026000000000000000e+04,4.314000000000000000e+03,9.000000000000000000e+01
6.025800000000000000e+04,4.314000000000000000e+03,-5.900000000000000000e+01
6.025800000000000000e+04,4.327000000000000000e+03,-5.900000000000000000e+01
6.025800000000000000e+04,4.327000000000000000e+03,-5.900000000000000000e+01
6.025800000000000000e+04,4.327000000000000000e+03,-5.900000000000000000e+01
6.025600000000000000e+04,4.327000000000000000e+03,-2.610000000000000000e+02
6.025600000000000000e+04,4.318000000000000000e+03,-2.610000000000000000e+02
6.025600000000000000e+04,4.318000000000000000e+03,-2.610000000000000000e+02
6.025600000000000000e+04,4.318000000000000000e+03,-2.610000000000000000e+02
6.025600000000000000e+04,4.318000000000000000e+03,-2.380000000000000000e+02
6.025600000000000000e+04,4.331000000000000000e+03,-2.380000000000000000e+02
6.025600000000000000e+04,4.331000000000000000e+03,-2.380000000000000000e+02
6.025600000000000000e+04,4.331000000000000000e+03,-2.380000000000000000e+02
6.025100000000000000e+04,4.331000000000000000e+03,-8.800000000000000000e+01
6.025100000000000000e+04,4.333000000000000000e+03,-8.800000000000000000e+01
6.025100000000000000e+04,4.333000000000000000e+03,-8.800000000000000000e+01
6.025100000000000000e+04,4.333000000000000000e+03,-8.800000000000000000e+01
6.026800000000000000e+04,4.333000000000000000e+03,8.000000000000000000e+00
6.026800000000000000e+04,4.319000000000000000e+03,8.000000000000000000e+00
6.026800000000000000e+04,4.319000000000000000e+03,8.000000000000000000e+00
6.026800000000000000e+04,4.319000000000000000e+03,8.000000000000000000e+00
6.027400000000000000e+04,4.319000000000000000e+03,-2.000000000000000000e+02
6.027400000000000000e+04,4.312000000000000000e+03,-2.000000000000000000e+02
6.027400000000000000e+04,4.312000000000000000e+03,-2.000000000000000000e+02
6.027400000000000000e+04,4.312000000000000000e+03,-2.000000000000000000e+02
6.028000000000000000e+04,4.312000000000000000e+03,-2.700000000000000000e+02
6.028000000000000000e+04,4.302000000000000000e+03,-2.700000000000000000e+02
6.028000000000000000e+04,4.302000000000000000e+03,-2.700000000000000000e+02
6.028000000000000000e+04,4.302000000000000000e+03,-2.700000000000000000e+02
6.028500000000000000e+04,4.302000000000000000e+03,-1.370000000000000000e+02
6.028500000000000000e+04,4.303000000000000000e+03,-1.370000000000000000e+02
6.028500000000000000e+04,4.303000000000000000e+03,-1.370000000000000000e+02
6.028500000000000000e+04,4.303000000000000000e+03,-1.370000000000000000e+02
6.028400000000000000e+04,4.303000000000000000e+03,-2.070000000000000000e+02
6.028400000000000000e+04,4.305000000000000000e+03,-2.070000000000000000e+02
6.028400000000000000e+04,4.305000000000000000e+03,-2.070000000000000000e+02
6.028400000000000000e+04,4.305000000000000000e+03,-2.070000000000000000e+02
6.028800000000000000e+04,4.305000000000000000e+03,3.100000000000000000e+01
6.028800000000000000e+04,4.303000000000000000e+03,3.100000000000000000e+01
6.028800000000000000e+04,4.303000000000000000e+03,3.100000000000000000e+01
6.028800000000000000e+04,4.303000000000000000e+03,3.100000000000000000e+01
6.029400000000000000e+04,4.303000000000000000e+03,-2.530000000000000000e+02
6.029400000000000000e+04,4.303000000000000000e+03,-2.530000000000000000e+02
6.029400000000000000e+04,4.303000000000000000e+03,-2.530000000000000000e+02
6.029400000000000000e+04,4.303000000000000000e+03,-2.530000000000000000e+02
6.028900000000000000e+04,4.303000000000000000e+03,-2.870000000000000000e+02
6.028900000000000000e+04,4.297000000000000000e+03,-2.870000000000000000e+02
6.028900000000000000e+04,4.297000000000000000e+03,-2.870000000000000000e+02
6.028900000000000000e+04,4.297000000000000000e+03,-2.870000000000000000e+02
6.028300000000000000e+04,4.297000000000000000e+03,-9.600000000000000000e+01
6.028300000000000000e+04,4.306000000000000000e+03,-9.600000000000000000e+01
6.028300000000000000e+04,4.306000000000000000e+03,-9.600000000000000000e+01
6.028300000000000000e+04,4.306000000000000000e+03,-9.600000000000000000e+01
6.028000000000000000e+04,4.306000000000000000e+03,1.650000000000000000e+02
6.028000000000000000e+04,4.311000000000000000e+03,1.650000000000000000e+02
6.028000000000000000e+04,4.311000000000000000e+03,1.650000000000000000e+02
6.028000000000000000e+04,4.311000000000000000e+03,1.650000000000000000e+02
6.029000000000000000e+04,4.311000000000000000e+03,-7.100000000000000000e+01
6.029000000000000000e+04,4.307000000000000000e+03,-7.100000000000000000e+01
6.029000000000000000e+04,4.307000000000000000e+03,-7.100000000000000000e+01
6.029000000000000000e+04,4.307000000000000000e+03,-7.100000000000000000e+01
6.027900000000000000e+04,4.307000000000000000e+03,-1.850000000000000000e+02
6.027900000000000000e+04,4.312000000000000000e+03,-1.850000000000000000e+02
6.027900000000000000e+04,4.312000000000000000e+03,-1.850000000000000000e+02
6.027900000000000000e+04,4.312000000000000000e+03,-1.850000000000000000e+02
6.027900000000000000e+04,4.312000000000000000e+03,-3.010000000000000000e+02
6.027900000000000000e+04,4.320000000000000000e+03,-3.010000000000000000e+02
6.027900000000000000e+04,4.320000000000000000e+03,-3.010000000000000000e+02
6.027900000000000000e+04,4.320000000000000000e+03,-3.010000000000000000e+02
6.028400000000000000e+04,4.320000000000000000e+03,5.120000000000000000e+02
6.028400000000000000e+04,4.330000000000000000e+03,5.120000000000000000e+02
6.028400000000000000e+04,4.330000000000000000e+03,5.120000000000000000e+02
6.028400000000000000e+04,4.330000000000000000e+03,5.120000000000000000e+02
6.028400000000000000e+04,4.330000000000000000e+03,1.181000000000000000e+03
6.028400000000000000e+04,4.323000000000000000e+03,1.181000000000000000e+03
6.028400000000000000e+04,4.323000000000000000e+03,1.181000000000000000e+03
6.028400000000000000e+04,4.323000000000000000e+03,1.181000000000000000e+03
6.029000000000000000e+04,4.323000000000000000e+03,9.300000000000000000e+01
6.029000000000000000e+04,4.324000000000000000e+03,9.300000000000000000e+01
6.029000000000000000e+04,4.324000000000000000e+03,9.300000000000000000e+01
6.029000000000000000e+04,4.324000000000000000e+03,9.300000000000000000e+01
6.028600000000000000e+04,4.324000000000000000e+03,5.300000000000000000e+01
6.028600000000000000e+04,4.328000000000000000e+03,5.300000000000000000e+01
6.028600000000000000e+04,4.328000000000000000e+03,5.300000000000000000e+01
6.028600000000000000e+04,4.328000000000000000e+03,5.300000000000000000e+01
6.028300000000000000e+04,4.328000000000000000e+03,7.300000000000000000e+01
6.028300000000000000e+04,4.317000000000000000e+03,7.300000000000000000e+01
6.028300000000000000e+04,4.317000000000000000e+03,7.300000000000000000e+01
6.028300000000000000e+04,4.317000000000000000e+03,7.300000000000000000e+01
6.028200000000000000e+04,4.317000000000000000e+03,7.100000000000000000e+01
6.028200000000000000e+04,4.315000000000000000e+03,7.100000000000000000e+01
6.028200000000000000e+04,4.315000000000000000e+03,7.100000000000000000e+01
6.028200000000000000e+04,4.315000000000000000e+03,7.100000000000000000e+01
6.028900000000000000e+04,4.315000000000000000e+03,3.890000000000000000e+02
6.028900000000000000e+04,4.325000000000000000e+03,3.890000000000000000e+02
6.028900000000000000e+04,4.325000000000000000e+03,3.890000000000000000e+02
6.028900000000000000e+04,4.325000000000000000e+03,3.890000000000000000e+02
6.029600000000000000e+04,4.325000000000000000e+03,5.020000000000000000e+02
6.029600000000000000e+04,4.325000000000000000e+03,5.020000000000000000e+02
6.029600000000000000e+04,4.325000000000000000e+03,5.020000000000000000e+02
6.029600000000000000e+04,4.325000000000000000e+03,5.020000000000000000e+02
6.030300000000000000e+04,4.325000000000000000e+03,4.820000000000000000e+02
6.030300000000000000e+04,4.314000000000000000e+03,4.820000000000000000e+02
6.030300000000000000e+04,4.314000000000000000e+03,4.820000000000000000e+02
6.030300000000000000e+04,4.314000000000000000e+03,4.820000000000000000e+02
6.029600000000000000e+04,4.314000000000000000e+03,4.940000000000000000e+02
6.029600000000000000e+04,4.316000000000000000e+03,4.940000000000000000e+02
6.029600000000000000e+04,4.316000000000000000e+03,4.940000000000000000e+02
6.029600000000000000e+04,4.316000000000000000e+03,4.940000000000000000e+02
6.029900000000000000e+04,4.316000000000000000e+03,6.680000000000000000e+02
6.029900000000000000e+04,4.317000000000000000e+03,6.680000000000000000e+02
6.029900000000000000e+04,4.317000000000000000e+03,6.680000000000000000e+02
6.029900000000000000e+04,4.317000000000000000e+03,6.680000000000000000e+02
6.030300000000000000e+04,4.317000000000000000e+03,1.086000000000000000e+03
6.030300000000000000e+04,4.314000000000000000e+03,1.086000000000000000e+03
6.030300000000000000e+04,4.314000000000000000e+03,1.086000000000000000e+03
6.030300000000000000e+04,4.314000000000000000e+03,1.086000000000000000e+03
6.028500000000000000e+04,4.314000000000000000e+03,1.116000000000000000e+03
6.028500000000000000e+04,4.269000000000000000e+03,1.116000000000000000e+03
6.028500000000000000e+04,4.269000000000000000e+03,1.116000000000000000e+03
6.028500000000000000e+04,4.269000000000000000e+03,1.116000000000000000e+03
6.026000000000000000e+04,4.269000000000000000e+03,7.770000000000000000e+02
6.026000000000000000e+04,4.222000000000000000e+03,7.770000000000000000e+02
6.026000000000000000e+04,4.222000000000000000e+03,7.770000000000000000e+02
6.026000000000000000e+04,4.222000000000000000e+03,7.770000000000000000e+02
6.024500000000000000e+04,4.222000000000000000e+03,8.270000000000000000e+02
6.024500000000000000e+04,4.198000000000000000e+03,8.270000000000000000e+02
6.024500000000000000e+04,4.198000000000000000e+03,8.270000000000000000e+02
6.024500000000000000e+04,4.198000000000000000e+03,8.270000000000000000e+02
6.023800000000000000e+04,4.198000000000000000e+03,7.700000000000000000e+02
6.023800000000000000e+04,4.173000000000000000e+03,7.700000000000000000e+02
6.023800000000000000e+04,4.173000000000000000e+03,7.700000000000000000e+02
6.023800000000000000e+04,4.173000000000000000e+03,7.700000000000000000e+02
6.024500000000000000e+04,4.173000000000000000e+03,7.030000000000000000e+02
6.024500000000000000e+04,4.185000000000000000e+03,7.030000000000000000e+02
6.024500000000000000e+04,4.185000000000000000e+03,7.030000000000000000e+02
6.024500000000000000e+04,4.185000000000000000e+03,7.030000000000000000e+02
6.024400000000000000e+04,4.185000000000000000e+03,7.590000000000000000e+02
6.024400000000000000e+04,4.177000000000000000e+03,7.590000000000000000e+02
6.024400000000000000e+04,4.177000000000000000e+03,7.590000000000000000e+02
6.024400000000000000e+04,4.177000000000000000e+03,7.590000000000000000e+02
6.025900000000000000e+04,4.177000000000000000e+03,6.120000000000000000e+02
6.025900000000000000e+04,4.188000000000000000e+03,6.120000000000000000e+02
6.025900000000000000e+04,4.188000000000000000e+03,6.120000000000000000e+02
6.025900000000000000e+04,4.188000000000000000e+03,6.120000000000000000e+02
6.025500000000000000e+04,4.188000000000000000e+03,7.060000000000000000e+02
6.025500000000000000e+04,4.187000000000000000e+03,7.060000000000000000e+02
6.025500000000000000e+04,4.187000000000000000e+03,7.060000000000000000e+02
6.025500000000000000e+04,4.187000000000000000e+03,7.060000000000000000e+02
6.025500000000000000e+04,4.187000000000000000e+03,8.780000000000000000e+02
6.025500000000000000e+04,4.193000000000000000e+03,8.780000000000000000e+02
6.025500000000000000e+04,4.193000000000000000e+03,8.780000000000000000e+02
6.025500000000000000e+04,4.193000000000000000e+03,8.780000000000000000e+02
6.025200000000000000e+04,4.193000000000000000e+03,7.880000000000000000e+02
6.025200000000000000e+04,4.171000000000000000e+03,7.880000000000000000e+02
6.025200000000000000e+04,4.171000000000000000e+03,7.880000000000000000e+02
6.025200000000000000e+04,4.171000000000000000e+03,7.880000000000000000e+02
6.025100000000000000e+04,4.171000000000000000e+03,8.030000000000000000e+02
6.025100000000000000e+04,4.174000000000000000e+03,8.030000000000000000e+02
6.025100000000000000e+04,4.174000000000000000e+03,8.030000000000000000e+02
6.025100000000000000e+04,4.174000000000000000e+03,8.030000000000000000e+02
6.025000000000000000e+04,4.174000000000000000e+03,5.070000000000000000e+02
6.025000000000000000e+04,4.179000000000000000e+03,5.070000000000000000e+02
6.025000000000000000e+04,4.179000000000000000e+03,5.070000000000000000e+02
6.025000000000000000e+04,4.179000000000000000e+03,5.070000000000000000e+02
6.023300000000000000e+04,4.179000000000000000e+03,7.740000000000000000e+02
6.023300000000000000e+04,4.173000000000000000e+03,7.740000000000000000e+02
6.023300000000000000e+04,4.173000000000000000e+03,7.740000000000000000e+02
6.023300000000000000e+04,4.173000000000000000e+03,7.740000000000000000e+02
6.023000000000000000e+04,4.173000000000000000e+03,8.360000000000000000e+02
6.023000000000000000e+04,4.171000000000000000e+03,8.360000000000000000e+02
6.023000000000000000e+04,4.171000000000000000e+03,8.360000000000000000e+02
6.023000000000000000e+04,4.171000000000000000e+03,8.360000000000000000e+02
6.022400000000000000e+04,4.171000000000000000e+03,1.002000000000000000e+03
6.022400000000000000e+04,4.169000000000000000e+03,1.002000000000000000e+03
6.022400000000000000e+04,4.169000000000000000e+03,1.002000000000000000e+03
6.022400000000000000e+04,4.169000000000000000e+03,1.002000000000000000e+03
6.022500000000000000e+04,4.169000000000000000e+03,8.160000000000000000e+02
6.022500000000000000e+04,4.152000000000000000e+03,8.160000000000000000e+02
6.022500000000000000e+04,4.152000000000000000e+03,8.160000000000000000e+02
6.022500000000000000e+04,4.152000000000000000e+03,8.160000000000000000e+02
6.021600000000000000e+04,4.152000000000000000e+03,7.500000000000000000e+02
6.021600000000000000e+04,4.152000000000000000e+03,7.500000000000000000e+02
6.021600000000000000e+04,4.152000000000000000e+03,7.500000000000000000e+02
6.021600000000000000e+04,4.152000000000000000e+03,7.500000000000000000e+02
6.021100000000000000e+04,4.152000000000000000e+03,9.830000000000000000e+02
6.021100000000000000e+04,4.137000000000000000e+03,9.830000000000000000e+02
6.021100000000000000e+04,4.137000000000000000e+03,9.830000000000000000e+02
6.021100000000000000e+04,4.137000000000000000e+03,9.830000000000000000e+02
6.020100000000000000e+04,4.137000000000000000e+03,1.123000000000000000e+03
6.020100000000000000e+04,4.158000000000000000e+03,1.123000000000000000e+03
6.020100000000000000e+04,4.158000000000000000e+03,1.123000000000000000e+03
6.020100000000000000e+04,4.158000000000000000e+03,1.123000000000000000e+03
6.019900000000000000e+04,4.158000000000000000e+03,1.235000000000000000e+03
6.019900000000000000e+04,4.154000000000000000e+03,1.235000000000000000e+03
6.019900000000000000e+04,4.154000000000000000e+03,1.235000000000000000e+03
6.019900000000000000e+04,4.154000000000000000e+03,1.235000000000000000e+03
6.020200000000000000e+04,4.154000000000000000e+03,1.277000000000000000e+03
6.020200000000000000e+04,4.166000000000000000e+03,1.277000000000000000e+03
6.020200000000000000e+04,4.166000000000000000e+03,1.277000000000000000e+03
6.020200000000000000e+04,4.166000000000000000e+03,1.277000000000000000e+03
6.019100000000000000e+04,4.166000000000000000e+03,1.085000000000000000e+03
6.019100000000000000e+04,4.170000000000000000e+03,1.085000000000000000e+03
6.019100000000000000e+04,4.170000000000000000e+03,1.085000000000000000e+03
6.019100000000000000e+04,4.170000000000000000e+03,1.085000000000000000e+03
6.019000000000000000e+04,4.170000000000000000e+03,1.273000000000000000e+03
6.019000000000000000e+04,4.157000000000000000e+03,1.273000000000000000e+03
6.019000000000000000e+04,4.157000000000000000e+03,1.273000000000000000e+03
6.019000000000000000e+04,4.157000000000000000e+03,1.273000000000000000e+03
6.018200000000000000e+04,4.157000000000000000e+03,1.526000000000000000e+03
6.018200000000000000e+04,4.172000000000000000e+03,1.526000000000000000e+03
6.018200000000000000e+04,4.172000000000000000e+03,1.526000000000000000e+03
6.018200000000000000e+04,4.172000000000000000e+03,1.526000000000000000e+03
6.017800000000000000e+04,4.172000000000000000e+03,1.420000000000000000e+03
6.017800000000000000e+04,4.174000000000000000e+03,1.420000000000000000e+03
6.017800000000000000e+04,4.174000000000000000e+03,1.420000000000000000e+03
6.017800000000000000e+04,4.174000000000000000e+03,1.420000000000000000e+03
6.017600000000000000e+04,4.174000000000000000e+03,1.229000000000000000e+03
6.017600000000000000e+04,4.170000000000000000e+03,1.229000000000000000e+03
6.017600000000000000e+04,4.170000000000000000e+03,1.229000000000000000e+03
6.017600000000000000e+04,4.170000000000000000e+03,1.229000000000000000e+03
6.017800000000000000e+04,4.170000000000000000e+03,1.149000000000000000e+03
6.017800000000000000e+04,4.161000000000000000e+03,1.149000000000000000e+03
6.017800000000000000e+04,4.161000000000000000e+03,1.149000000000000000e+03
6.017800000000000000e+04,4.161000000000000000e+03,1.149000000000000000e+03
6.018000000000000000e+04,4.161000000000000000e+03,1.599000000000000000e+03
6.018000000000000000e+04,4.181000000000000000e+03,1.599000000000000000e+03
6.018000000000000000e+04,4.181000000000000000e+03,1.599000000000000000e+03
6.018000000000000000e+04,4.181000000000000000e+03,1.599000000000000000e+03
6.017400000000000000e+04,4.181000000000000000e+03,2.466000000000000000e+03
6.017400000000000000e+04,4.185000000000000000e+03,2.466000000000000000e+03
6.017400000000000000e+04,4.185000000000000000e+03,2.466000000000000000e+03
6.017400000000000000e+04,4.185000000000000000e+03,2.466000000000000000e+03
6.017200000000000000e+04,4.185000000000000000e+03,1.895000000000000000e+03
6.017200000000000000e+04,4.181000000000000000e+03,1.895000000000000000e+03
6.017200000000000000e+04,4.181000000000000000e+03,1.895000000000000000e+03
6.017200000000000000e+04,4.181000000000000000e+03,1.895000000000000000e+03
6.017100000000000000e+04,4.181000000000000000e+03,1.442000000000000000e+03
6.017100000000000000e+04,4.187000000000000000e+03,1.442000000000000000e+03
6.017100000000000000e+04,4.187000000000000000e+03,1.442000000000000000e+03
6.017100000000000000e+04,4.187000000000000000e+03,1.442000000000000000e+03
6.016200000000000000e+04,4.187000000000000000e+03,1.476000000000000000e+03
6.016200000000000000e+04,4.195000000000000000e+03,1.476000000000000000e+03
6.016200000000000000e+04,4.195000000000000000e+03,1.476000000000000000e+03
6.016200000000000000e+04,4.195000000000000000e+03,1.476000000000000000e+03
6.016400000000000000e+04,4.195000000000000000e+03,1.581000000000000000e+03
6.016400000000000000e+04,4.204000000000000000e+03,1.581000000000000000e+03
6.016400000000000000e+04,4.204000000000000000e+03,1.581000000000000000e+03
6.016400000000000000e+04,4.204000000000000000e+03,1.581000000000000000e+03
6.016900000000000000e+04,4.204000000000000000e+03,1.843000000000000000e+03
6.016900000000000000e+04,4.197000000000000000e+03,1.843000000000000000e+03
6.016900000000000000e+04,4.197000000000000000e+03,1.843000000000000000e+03
6.016900000000000000e+04,4.197000000000000000e+03,1.843000000000000000e+03
6.015900000000000000e+04,4.197000000000000000e+03,1.751000000000000000e+03
6.015900000000000000e+04,4.196000000000000000e+03,1.751000000000000000e+03
6.015900000000000000e+04,4.196000000000000000e+03,1.751000000000000000e+03
6.015900000000000000e+04,4.196000000000000000e+03,1.751000000000000000e+03
6.015300000000000000e+04,4.196000000000000000e+03,1.747000000000000000e+03
6.015300000000000000e+04,4.203000000000000000e+03,1.747000000000000000e+03
6.015300000000000000e+04,4.203000000000000000e+03,1.747000000000000000e+03
6.015300000000000000e+04,4.203000000000000000e+03,1.747000000000000000e+03
6.016400000000000000e+04,4.203000000000000000e+03,1.739000000000000000e+03
6.016400000000000000e+04,4.217000000000000000e+03,1.739000000000000000e+03
6.016400000000000000e+04,4.217000000000000000e+03,1.739000000000000000e+03
6.016400000000000000e+04,4.217000000000000000e+03,1.739000000000000000e+03
6.016800000000000000e+04,4.217000000000000000e+03,1.635000000000000000e+03
6.016800000000000000e+04,4.219000000000000000e+03,1.635000000000000000e+03
6.016800000000000000e+04,4.219000000000000000e+03,1.635000000000000000e+03
6.016800000000000000e+04,4.219000000000000000e+03,1.635000000000000000e+03
6.016000000000000000e+04,4.219000000000000000e+03,1.973000000000000000e+03
6.016000000000000000e+04,4.228000000000000000e+03,1.973000000000000000e+03
6.016000000000000000e+04,4.228000000000000000e+03,1.973000000000000000e+03
6.016000000000000000e+04,4.228000000000000000e+03,1.973000000000000000e+03
6.013700000000000000e+04,4.228000000000000000e+03,2.035000000000000000e+03
6.013700000000000000e+04,4.184000000000000000e+03,2.035000000000000000e+03
6.013700000000000000e+04,4.184000000000000000e+03,2.035000000000000000e+03
6.013700000000000000e+04,4.184000000000000000e+03,2.035000000000000000e+03
6.011600000000000000e+04,4.184000000000000000e+03,1.849000000000000000e+03
6.011600000000000000e+04,4.144000000000000000e+03,1.849000000000000000e+03
6.011600000000000000e+04,4.144000000000000000e+03,1.849000000000000000e+03
6.011600000000000000e+04,4.144000000000000000e+03,1.849000000000000000e+03
6.009800000000000000e+04,4.144000000000000000e+03,1.548000000000000000e+03
6.009800000000000000e+04,4.102000000000000000e+03,1.548000000000000000e+03
6.009800000000000000e+04,4.102000000000000000e+03,1.548000000000000000e+03
6.009800000000000000e+04,4.102000000000000000e+03,1.548000000000000000e+03
6.009000000000000000e+04,4.102000000000000000e+03,1.483000000000000000e+03
6.009000000000000000e+04,4.087000000000000000e+03,1.483000000000000000e+03
6.009000000000000000e+04,4.087000000000000000e+03,1.483000000000000000e+03
6.009000000000000000e+04,4.087000000000000000e+03,1.483000000000000000e+03
6.008200000000000000e+04,4.087000000000000000e+03,1.477000000000000000e+03
6.008200000000000000e+04,4.102000000000000000e+03,1.477000000000000000e+03
6.008200000000000000e+04,4.102000000000000000e+03,1.477000000000000000e+03
6.008200000000000000e+04,4.102000000000000000e+03,1.477000000000000000e+03
6.009800000000000000e+04,4.102000000000000000e+03,1.283000000000000000e+03
6.009800000000000000e+04,4.127000000000000000e+03,1.283000000000000000e+03
6.009800000000000000e+04,4.127000000000000000e+03,1.283000000000000000e+03
6.009800000000000000e+04,4.127000000000000000e+03,1.283000000000000000e+03
6.008600000000000000e+04,4.127000000000000000e+03,1.095000000000000000e+03
6.008600000000000000e+04,4.132000000000000000e+03,1.095000000000000000e+03
6.008600000000000000e+04,4.132000000000000000e+03,1.095000000000000000e+03
6.008600000000000000e+04,4.132000000000000000e+03,1.095000000000000000e+03
6.009100000000000000e+04,4.132000000000000000e+03,1.005000000000000000e+03
6.009100000000000000e+04,4.144000000000000000e+03,1.005000000000000000e+03
6.009100000000000000e+04,4.144000000000000000e+03,1.005000000000000000e+03
6.009100000000000000e+04,4.144000000000000000e+03,1.005000000000000000e+03
6.008500000000000000e+04,4.144000000000000000e+03,1.059000000000000000e+03
6.008500000000000000e+04,4.149000000000000000e+03,1.059000000000000000e+03
6.008500000000000000e+04,4.149000000000000000e+03,1.059000000000000000e+03
6.008500000000000000e+04,4.149000000000000000e+03,1.059000000000000000e+03
6.008400000000000000e+04,4.149000000000000000e+03,1.100000000000000000e+03
6.008400000000000000e+04,4.158000000000000000e+03,1.100000000000000000e+03
6.008400000000000000e+04,4.158000000000000000e+03,1.100000000000000000e+03
6.008400000000000000e+04,4.158000000000000000e+03,1.100000000000000000e+03
6.007100000000000000e+04,4.158000000000000000e+03,9.800000000000000000e+02
6.007100000000000000e+04,4.168000000000000000e+03,9.800000000000000000e+02
6.007100000000000000e+04,4.168000000000000000e+03,9.800000000000000000e+02
6.007100000000000000e+04,4.168000000000000000e+03,9.800000000000000000e+02
6.008100000000000000e+04,4.168000000000000000e+03,7.850000000000000000e+02
6.008100000000000000e+04,4.174000000000000000e+03,7.850000000000000000e+02
6.008100000000000000e+04,4.174000000000000000e+03,7.850000000000000000e+02
6.008100000000000000e+04,4.174000000000000000e+03,7.850000000000000000e+02
6.008400000000000000e+04,4.174000000000000000e+03,5.710000000000000000e+02
6.008400000000000000e+04,4.173000000000000000e+03,5.710000000000000000e+02
6.008400000000000000e+04,4.173000000000000000e+03,5.710000000000000000e+02
6.008400000000000000e+04,4.173000000000000000e+03,5.710000000000000000e+02
6.007700000000000000e+04,4.173000000000000000e+03,6.760000000000000000e+02
6.007700000000000000e+04,4.187000000000000000e+03,6.760000000000000000e+02
6.007700000000000000e+04,4.187000000000000000e+03,6.760000000000000000e+02
6.007700000000000000e+04,4.187000000000000000e+03,6.760000000000000000e+02
6.008500000000000000e+04,4.187000000000000000e+03,7.630000000000000000e+02
6.008500000000000000e+04,4.184000000000000000e+03,7.630000000000000000e+02
6.008500000000000000e+04,4.184000000000000000e+03,7.630000000000000000e+02
6.008500000000000000e+04,4.184000000000000000e+03,7.630000000000000000e+02
6.007700000000000000e+04,4.184000000000000000e+03,6.300000000000000000e+02
6.007700000000000000e+04,4.186000000000000000e+03,6.300000000000000000e+02
6.007700000000000000e+04,4.186000000000000000e+03,6.300000000000000000e+02
6.007700000000000000e+04,4.186000000000000000e+03,6.300000000000000000e+02
6.007500000000000000e+04,4.186000000000000000e+03,4.330000000000000000e+02
6.007500000000000000e+04,4.178000000000000000e+03,4.330000000000000000e+02
6.007500000000000000e+04,4.178000000000000000e+03,4.330000000000000000e+02
6.007500000000000000e+04,4.178000000000000000e+03,4.330000000000000000e+02
6.007500000000000000e+04,4.178000000000000000e+03,5.000000000000000000e+02
6.007500000000000000e+04,4.185000000000000000e+03,5.000000000000000000e+02
6.007500000000000000e+04,4.185000000000000000e+03,5.000000000000000000e+02
6.007500000000000000e+04,4.185000000000000000e+03,5.000000000000000000e+02
6.008000000000000000e+04,4.185000000000000000e+03,7.050000000000000000e+02
6.008000000000000000e+04,4.194000000000000000e+03,7.050000000000000000e+02
6.008000000000000000e+04,4.194000000000000000e+03,7.050000000000000000e+02
6.008000000000000000e+04,4.194000000000000000e+03,7.050000000000000000e+02
6.007300000000000000e+04,4.194000000000000000e+03,7.900000000000000000e+02
6.007300000000000000e+04,4.186000000000000000e+03,7.900000000000000000e+02
6.007300000000000000e+04,4.186000000000000000e+03,7.900000000000000000e+02
6.007300000000000000e+04,4.186000000000000000e+03,7.900000000000000000e+02
6.006700000000000000e+04,4.186000000000000000e+03,7.540000000000000000e+02
6.006700000000000000e+04,4.185000000000000000e+03,7.540000000000000000e+02
6.006700000000000000e+04,4.185000000000000000e+03,7.540000000000000000e+02
6.006700000000000000e+04,4.185000000000000000e+03,7.540000000000000000e+02
6.007900000000000000e+04,4.185000000000000000e+03,7.620000000000000000e+02
6.007900000000000000e+04,4.196000000000000000e+03,7.620000000000000000e+02
6.007900000000000000e+04,4.196000000000000000e+03,7.620000000000000000e+02
6.007900000000000000e+04,4.196000000000000000e+03,7.620000000000000000e+02
6.007800000000000000e+04,4.196000000000000000e+03,6.760000000000000000e+02
6.007800000000000000e+04,4.208000000000000000e+03,6.760000000000000000e+02
6.007800000000000000e+04,4.208000000000000000e+03,6.760000000000000000e+02
6.007800000000000000e+04,4.208000000000000000e+03,6.760000000000000000e+02
6.008000000000000000e+04,4.208000000000000000e+03,9.800000000000000000e+02
6.008000000000000000e+04,4.213000000000000000e+03,9.800000000000000000e+02
6.008000000000000000e+04,4.213000000000000000e+03,9.800000000000000000e+02
6.008000000000000000e+04,4.213000000000000000e+03,9.800000000000000000e+02
6.007700000000000000e+04,4.213000000000000000e+03,1.043000000000000000e+03
6.007700000000000000e+04,4.217000000000000000e+03,1.043000000000000000e+03
6.007700000000000000e+04,4.217000000000000000e+03,1.043000000000000000e+03
6.007700000000000000e+04,4.217000000000000000e+03,1.043000000000000000e+03
6.008100000000000000e+04,4.217000000000000000e+03,1.247000000000000000e+03
6.008100000000000000e+04,4.220000000000000000e+03,1.247000000000000000e+03
6.008100000000000000e+04,4.220000000000000000e+03,1.247000000000000000e+03
6.008100000000000000e+04,4.220000000000000000e+03,1.247000000000000000e+03
6.007800000000000000e+04,4.220000000000000000e+03,1.122000000000000000e+03
6.007800000000000000e+04,4.218000000000000000e+03,1.122000000000000000e+03
6.007800000000000000e+04,4.218000000000000000e+03,1.122000000000000000e+03
6.007800000000000000e+04,4.218000000000000000e+03,1.122000000000000000e+03
6.007600000000000000e+04,4.218000000000000000e+03,9.690000000000000000e+02
6.007600000000000000e+04,4.231000000000000000e+03,9.690000000000000000e+02
6.007600000000000000e+04,4.231000000000000000e+03,9.690000000000000000e+02
6.007600000000000000e+04,4.231000000000000000e+03,9.690000000000000000e+02
6.008500000000000000e+04,4.231000000000000000e+03,1.028000000000000000e+03
6.008500000000000000e+04,4.230000000000000000e+03,1.028000000000000000e+03
6.008500000000000000e+04,4.230000000000000000e+03,1.028000000000000000e+03
6.008500000000000000e+04,4.230000000000000000e+03,1.028000000000000000e+03
6.007400000000000000e+04,4.230000000000000000e+03,1.309000000000000000e+03
6.007400000000000000e+04,4.223000000000000000e+03,1.309000000000000000e+03
6.007400000000000000e+04,4.223000000000000000e+03,1.309000000000000000e+03
6.007400000000000000e+04,4.223000000000000000e+03,1.309000000000000000e+03
6.007800000000000000e+04,4.223000000000000000e+03,1.534000000000000000e+03
6.007800000000000000e+04,4.228000000000000000e+03,1.534000000000000000e+03
6.007800000000000000e+04,4.228000000000000000e+03,1.534000000000000000e+03
6.007800000000000000e+04,4.228000000000000000e+03,1.534000000000000000e+03
6.008400000000000000e+04,4.228000000000000000e+03,2.107000000000000000e+03
6.008400000000000000e+04,4.221000000000000000e+03,2.107000000000000000e+03
6.008400000000000000e+04,4.221000000000000000e+03,2.107000000000000000e+03
6.008400000000000000e+04,4.221000000000000000e+03,2.107000000000000000e+03
6.008700000000000000e+04,4.221000000000000000e+03,9.700000000000000000e+02
6.008700000000000000e+04,4.222000000000000000e+03,9.700000000000000000e+02
6.008700000000000000e+04,4.222000000000000000e+03,9.700000000000000000e+02
6.008700000000000000e+04,4.222000000000000000e+03,9.700000000000000000e+02
6.008200000000000000e+04,4.222000000000000000e+03,1.145000000000000000e+03
6.008200000000000000e+04,4.233000000000000000e+03,1.145000000000000000e+03
6.008200000000000000e+04,4.233000000000000000e+03,1.145000000000000000e+03
6.008200000000000000e+04,4.233000000000000000e+03,1.145000000000000000e+03
6.007800000000000000e+04,4.233000000000000000e+03,1.326000000000000000e+03
6.007800000000000000e+04,4.243000000000000000e+03,1.326000000000000000e+03
6.007800000000000000e+04,4.243000000000000000e+03,1.326000000000000000e+03
6.007800000000000000e+04,4.243000000000000000e+03,1.326000000000000000e+03
6.009100000000000000e+04,4.243000000000000000e+03,1.307000000000000000e+03
6.009100000000000000e+04,4.246000000000000000e+03,1.307000000000000000e+03
6.009100000000000000e+04,4.246000000000000000e+03,1.307000000000000000e+03
6.009100000000000000e+04,4.246000000000000000e+03,1.307000000000000000e+03
6.008300000000000000e+04,4.246000000000000000e+03,9.960000000000000000e+02
6.008300000000000000e+04,4.239000000000000000e+03,9.960000000000000000e+02
6.008300000000000000e+04,4.239000000000000000e+03,9.960000000000000000e+02
6.008300000000000000e+04,4.239000000000000000e+03,9.960000000000000000e+02
6.008500000000000000e+04,4.239000000000000000e+03,1.099000000000000000e+03
6.008500000000000000e+04,4.240000000000000000e+03,1.099000000000000000e+03
6.008500000000000000e+04,4.240000000000000000e+03,1.099000000000000000e+03
6.008500000000000000e+04,4.240000000000000000e+03,1.099000000000000000e+03
6.008700000000000000e+04,4.240000000000000000e+03,1.526000000000000000e+03
6.008700000000000000e+04,4.253000000000000000e+03,1.526000000000000000e+03
6.008700000000000000e+04,4.253000000000000000e+03,1.526000000000000000e+03
6.008700000000000000e+04,4.253000000000000000e+03,1.526000000000000000e+03
6.009400000000000000e+04,4.253000000000000000e+03,1.620000000000000000e+03
6.009400000000000000e+04,4.266000000000000000e+03,1.620000000000000000e+03
6.009400000000000000e+04,4.266000000000000000e+03,1.620000000000000000e+03
6.009400000000000000e+04,4.266000000000000000e+03,1.620000000000000000e+03
6.008500000000000000e+04,4.266000000000000000e+03,1.611000000000000000e+03
6.008500000000000000e+04,4.254000000000000000e+03,1.611000000000000000e+03
6.008500000000000000e+04,4.254000000000000000e+03,1.611000000000000000e+03
6.008500000000000000e+04,4.254000000000000000e+03,1.611000000000000000e+03
6.006600000000000000e+04,4.254000000000000000e+03,1.125000000000000000e+03
6.006600000000000000e+04,4.276000000000000000e+03,1.125000000000000000e+03
6.006600000000000000e+04,4.276000000000000000e+03,1.125000000000000000e+03
6.006600000000000000e+04,4.276000000000000000e+03,1.125000000000000000e+03
6.006300000000000000e+04,4.276000000000000000e+03,3.083000000000000000e+03
6.006300000000000000e+04,4.271000000000000000e+03,3.083000000000000000e+03
6.006300000000000000e+04,4.271000000000000000e+03,3.083000000000000000e+03
6.006300000000000000e+04,4.271000000000000000e+03,3.083000000000000000e+03
6.004700000000000000e+04,4.271000000000000000e+03,4.394000000000000000e+03
6.004700000000000000e+04,4.249000000000000000e+03,4.394000000000000000e+03
6.004700000000000000e+04,4.249000000000000000e+03,4.394000000000000000e+03
6.004700000000000000e+04,4.249000000000000000e+03,4.394000000000000000e+03
6.004600000000000000e+04,4.249000000000000000e+03,4.795000000000000000e+03
6.004600000000000000e+04,4.240000000000000000e+03,4.795000000000000000e+03
6.004600000000000000e+04,4.240000000000000000e+03,4.795000000000000000e+03
6.004600000000000000e+04,4.240000000000000000e+03,4.795000000000000000e+03
6.004800000000000000e+04,4.240000000000000000e+03,5.147000000000000000e+03
6.004800000000000000e+04,4.238000000000000000e+03,5.147000000000000000e+03
6.004800000000000000e+04,4.238000000000000000e+03,5.147000000000000000e+03
6.004800000000000000e+04,4.238000000000000000e+03,5.147000000000000000e+03
6.003700000000000000e+04,4.238000000000000000e+03,5.438000000000000000e+03
6.003700000000000000e+04,4.268000000000000000e+03,5.438000000000000000e+03
6.003700000000000000e+04,4.268000000000000000e+03,5.438000000000000000e+03
6.003700000000000000e+04,4.268000000000000000e+03,5.438000000000000000e+03
6.005200000000000000e+04,4.268000000000000000e+03,5.667000000000000000e+03
6.005200000000000000e+04,4.318000000000000000e+03,5.667000000000000000e+03
6.005200000000000000e+04,4.318000000000000000e+03,5.667000000000000000e+03
6.005200000000000000e+04,4.318000000000000000e+03,5.667000000000000000e+03
6.005800000000000000e+04,4.318000000000000000e+03,5.887000000000000000e+03
6.005800000000000000e+04,4.343000000000000000e+03,5.887000000000000000e+03
6.005800000000000000e+04,4.343000000000000000e+03,5.887000000000000000e+03
6.005800000000000000e+04,4.343000000000000000e+03,5.887000000000000000e+03
6.004800000000000000e+04,4.343000000000000000e+03,5.785000000000000000e+03
6.004800000000000000e+04,4.335000000000000000e+03,5.785000000000000000e+03
6.004800000000000000e+04,4.335000000000000000e+03,5.785000000000000000e+03
6.004800000000000000e+04,4.335000000000000000e+03,5.785000000000000000e+03
6.004600000000000000e+04,4.335000000000000000e+03,5.616000000000000000e+03
6.004600000000000000e+04,4.355000000000000000e+03,5.616000000000000000e+03
6.004600000000000000e+04,4.355000000000000000e+03,5.616000000000000000e+03
6.004600000000000000e+04,4.355000000000000000e+03,5.616000000000000000e+03
6.004700000000000000e+04,4.355000000000000000e+03,5.465000000000000000e+03
6.004700000000000000e+04,4.347000000000000000e+03,5.465000000000000000e+03
6.004700000000000000e+04,4.347000000000000000e+03,5.465000000000000000e+03
6.004700000000000000e+04,4.347000000000000000e+03,5.465000000000000000e+03
6.004300000000000000e+04,4.347000000000000000e+03,5.310000000000000000e+03
6.004300000000000000e+04,4.361000000000000000e+03,5.310000000000000000e+03
6.004300000000000000e+04,4.361000000000000000e+03,5.310000000000000000e+03
6.004300000000000000e+04,4.361000000000000000e+03,5.310000000000000000e+03
6.004100000000000000e+04,4.361000000000000000e+03,5.528000000000000000e+03
6.004100000000000000e+04,4.368000000000000000e+03,5.528000000000000000e+03
6.004100000000000000e+04,4.368000000000000000e+03,5.528000000000000000e+03
6.004100000000000000e+04,4.368000000000000000e+03,5.528000000000000000e+03
6.005300000000000000e+04,4.368000000000000000e+03,5.325000000000000000e+03
6.005300000000000000e+04,4.398000000000000000e+03,5.325000000000000000e+03
6.005300000000000000e+04,4.398000000000000000e+03,5.325000000000000000e+03
6.005300000000000000e+04,4.398000000000000000e+03,5.325000000000000000e+03
6.004700000000000000e+04,4.398000000000000000e+03,5.257000000000000000e+03
6.004700000000000000e+04,4.404000000000000000e+03,5.257000000000000000e+03
6.004700000000000000e+04,4.404000000000000000e+03,5.257000000000000000e+03
6.004700000000000000e+04,4.404000000000000000e+03,5.257000000000000000e+03
6.004300000000000000e+04,4.404000000000000000e+03,4.905000000000000000e+03
6.004300000000000000e+04,4.396000000000000000e+03,4.905000000000000000e+03
6.004300000000000000e+04,4.396000000000000000e+03,4.905000000000000000e+03
6.004300000000000000e+04,4.396000000000000000e+03,4.905000000000000000e+03
6.004200000000000000e+04,4.396000000000000000e+03,4.954000000000000000e+03
6.004200000000000000e+04,4.413000000000000000e+03,4.954000000000000000e+03
6.004200000000000000e+04,4.413000000000000000e+03,4.954000000000000000e+03
6.004200000000000000e+04,4.413000000000000000e+03,4.954000000000000000e+03
6.003400000000000000e+04,4.413000000000000000e+03,4.927000000000000000e+03
6.003400000000000000e+04,4.429000000000000000e+03,4.927000000000000000e+03
6.003400000000000000e+04,4.429000000000000000e+03,4.927000000000000000e+03
6.003400000000000000e+04,4.429000000000000000e+03,4.927000000000000000e+03
6.003900000000000000e+04,4.429000000000000000e+03,5.002000000000000000e+03
6.003900000000000000e+04,4.435000000000000000e+03,5.002000000000000000e+03
6.003900000000000000e+04,4.435000000000000000e+03,5.002000000000000000e+03
6.003900000000000000e+04,4.435000000000000000e+03,5.002000000000000000e+03
6.004200000000000000e+04,4.435000000000000000e+03,4.811000000000000000e+03
6.004200000000000000e+04,4.445000000000000000e+03,4.811000000000000000e+03
6.004200000000000000e+04,4.445000000000000000e+03,4.811000000000000000e+03
6.004200000000000000e+04,4.445000000000000000e+03,4.811000000000000000e+03
6.004000000000000000e+04,4.445000000000000000e+03,4.462000000000000000e+03
6.004000000000000000e+04,4.450000000000000000e+03,4.462000000000000000e+03
6.004000000000000000e+04,4.450000000000000000e+03,4.462000000000000000e+03
6.004000000000000000e+04,4.450000000000000000e+03,4.462000000000000000e+03
6.005300000000000000e+04,4.450000000000000000e+03,4.675000000000000000e+03
6.005300000000000000e+04,4.472000000000000000e+03,4.675000000000000000e+03
6.005300000000000000e+04,4.472000000000000000e+03,4.675000000000000000e+03
6.005300000000000000e+04,4.472000000000000000e+03,4.675000000000000000e+03
6.004400000000000000e+04,4.472000000000000000e+03,4.605000000000000000e+03
6.004400000000000000e+04,4.471000000000000000e+03,4.605000000000000000e+03
6.004400000000000000e+04,4.471000000000000000e+03,4.605000000000000000e+03
6.004400000000000000e+04,4.471000000000000000e+03,4.605000000000000000e+03
6.005300000000000000e+04,4.471000000000000000e+03,4.366000000000000000e+03
6.005300000000000000e+04,4.495000000000000000e+03,4.366000000000000000e+03
6.005300000000000000e+04,4.495000000000000000e+03,4.366000000000000000e+03
6.005300000000000000e+04,4.495000000000000000e+03,4.366000000000000000e+03
6.005400000000000000e+04,4.495000000000000000e+03,4.017000000000000000e+03
6.005400000000000000e+04,4.496000000000000000e+03,4.017000000000000000e+03
6.005400000000000000e+04,4.496000000000000000e+03,4.017000000000000000e+03
6.005400000000000000e+04,4.496000000000000000e+03,4.017000000000000000e+03
6.005500000000000000e+04,4.496000000000000000e+03,3.956000000000000000e+03
6.005500000000000000e+04,4.499000000000000000e+03,3.956000000000000000e+03
6.005500000000000000e+04,4.499000000000000000e+03,3.956000000000000000e+03
6.005500000000000000e+04,4.499000000000000000e+03,3.956000000000000000e+03
6.006100000000000000e+04,4.499000000000000000e+03,4.123000000000000000e+03
6.006100000000000000e+04,4.491000000000000000e+03,4.123000000000000000e+03
6.006100000000000000e+04,4.491000000000000000e+03,4.123000000000000000e+03
6.006100000000000000e+04,4.491000000000000000e+03,4.123000000000000000e+03
6.006200000000000000e+04,4.491000000000000000e+03,4.315000000000000000e+03
6.006200000000000000e+04,4.522000000000000000e+03,4.315000000000000000e+03
6.006200000000000000e+04,4.522000000000000000e+03,4.315000000000000000e+03
6.006200000000000000e+04,4.522000000000000000e+03,4.315000000000000000e+03
6.006200000000000000e+04,4.522000000000000000e+03,4.029000000000000000e+03
6.006200000000000000e+04,4.515000000000000000e+03,4.029000000000000000e+03
6.006200000000000000e+04,4.515000000000000000e+03,4.029000000000000000e+03
6.006200000000000000e+04,4.515000000000000000e+03,4.029000000000000000e+03
6.006300000000000000e+04,4.515000000000000000e+03,3.883000000000000000e+03
6.006300000000000000e+04,4.513000000000000000e+03,3.883000000000000000e+03
6.006300000000000000e+04,4.513000000000000000e+03,3.883000000000000000e+03
6.006300000000000000e+04,4.513000000000000000e+03,3.883000000000000000e+03
6.006100000000000000e+04,4.513000000000000000e+03,3.672000000000000000e+03
6.006100000000000000e+04,4.518000000000000000e+03,3.672000000000000000e+03
6.006100000000000000e+04,4.518000000000000000e+03,3.672000000000000000e+03
6.006100000000000000e+04,4.518000000000000000e+03,3.672000000000000000e+03
6.006500000000000000e+04,4.518000000000000000e+03,3.694000000000000000e+03
6.006500000000000000e+04,4.515000000000000000e+03,3.694000000000000000e+03
6.006500000000000000e+04,4.515000000000000000e+03,3.694000000000000000e+03
6.006500000000000000e+04,4.515000000000000000e+03,3.694000000000000000e+03
6.006700000000000000e+04,4.515000000000000000e+03,3.689000000000000000e+03
6.006700000000000000e+04,4.527000000000000000e+03,3.689000000000000000e+03
6.006700000000000000e+04,4.527000000000000000e+03,3.689000000000000000e+03
6.006700000000000000e+04,4.527000000000000000e+03,3.689000000000000000e+03
6.006500000000000000e+04,4.527000000000000000e+03,4.231000000000000000e+03
6.006500000000000000e+04,4.523000000000000000e+03,4.231000000000000000e+03
6.006500000000000000e+04,4.523000000000000000e+03,4.231000000000000000e+03
6.006500000000000000e+04,4.523000000000000000e+03,4.231000000000000000e+03
6.006500000000000000e+04,4.523000000000000000e+03,4.632000000000000000e+03
6.006500000000000000e+04,4.541000000000000000e+03,4.632000000000000000e+03
6.006500000000000000e+04,4.541000000000000000e+03,4.632000000000000000e+03
6.006500000000000000e+04,4.541000000000000000e+03,4.632000000000000000e+03
6.006500000000000000e+04,4.541000000000000000e+03,3.581000000000000000e+03
6.006500000000000000e+04,4.542000000000000000e+03,3.581000000000000000e+03
6.006500000000000000e+04,4.542000000000000000e+03,3.581000000000000000e+03
6.006500000000000000e+04,4.542000000000000000e+03,3.581000000000000000e+03
6.006100000000000000e+04,4.542000000000000000e+03,3.524000000000000000e+03
6.006100000000000000e+04,4.542000000000000000e+03,3.524000000000000000e+03
6.006100000000000000e+04,4.542000000000000000e+03,3.524000000000000000e+03
6.006100000000000000e+04,4.542000000000000000e+03,3.524000000000000000e+03
6.005500000000000000e+04,4.542000000000000000e+03,3.501000000000000000e+03
6.005500000000000000e+04,4.526000000000000000e+03,3.501000000000000000e+03
6.005500000000000000e+04,4.526000000000000000e+03,3.501000000000000000e+03
6.005500000000000000e+04,4.526000000000000000e+03,3.501000000000000000e+03
6.004500000000000000e+04,4.526000000000000000e+03,3.517000000000000000e+03
6.004500000000000000e+04,4.521000000000000000e+03,3.517000000000000000e+03
6.004500000000000000e+04,4.521000000000000000e+03,3.517000000000000000e+03
6.004500000000000000e+04,4.521000000000000000e+03,3.517000000000000000e+03
6.005100000000000000e+04,4.521000000000000000e+03,3.285000000000000000e+03
6.005100000000000000e+04,4.514000000000000000e+03,3.285000000000000000e+03
6.005100000000000000e+04,4.514000000000000000e+03,3.285000000000000000e+03
6.005100000000000000e+04,4.514000000000000000e+03,3.285000000000000000e+03
6.005900000000000000e+04,4.514000000000000000e+03,3.097000000000000000e+03
6.005900000000000000e+04,4.508000000000000000e+03,3.097000000000000000e+03
6.005900000000000000e+04,4.508000000000000000e+03,3.097000000000000000e+03
6.005900000000000000e+04,4.508000000000000000e+03,3.097000000000000000e+03
6.004400000000000000e+04,4.508000000000000000e+03,3.272000000000000000e+03
6.004400000000000000e+04,4.513000000000000000e+03,3.272000000000000000e+03
6.004400000000000000e+04,4.513000000000000000e+03,3.272000000000000000e+03
6.004400000000000000e+04,4.513000000000000000e+03,3.272000000000000000e+03
6.005700000000000000e+04,4.513000000000000000e+03,3.159000000000000000e+03
6.005700000000000000e+04,4.504000000000000000e+03,3.159000000000000000e+03
6.005700000000000000e+04,4.504000000000000000e+03,3.159000000000000000e+03
6.005700000000000000e+04,4.504000000000000000e+03,3.159000000000000000e+03
6.005000000000000000e+04,4.504000000000000000e+03,3.085000000000000000e+03
6.005000000000000000e+04,4.504000000000000000e+03,3.085000000000000000e+03
6.005000000000000000e+04,4.504000000000000000e+03,3.085000000000000000e+03
6.005000000000000000e+04,4.504000000000000000e+03,3.085000000000000000e+03
6.005400000000000000e+04,4.504000000000000000e+03,2.825000000000000000e+03
6.005400000000000000e+04,4.484000000000000000e+03,2.825000000000000000e+03
6.005400000000000000e+04,4.484000000000000000e+03,2.825000000000000000e+03
6.005400000000000000e+04,4.484000000000000000e+03,2.825000000000000000e+03
6.003800000000000000e+04,4.484000000000000000e+03,3.021000000000000000e+03
6.003800000000000000e+04,4.445000000000000000e+03,3.021000000000000000e+03
6.003800000000000000e+04,4.445000000000000000e+03,3.021000000000000000e+03
6.003800000000000000e+04,4.445000000000000000e+03,3.021000000000000000e+03
6.001200000000000000e+04,4.445000000000000000e+03,3.150000000000000000e+03
6.001200000000000000e+04,4.395000000000000000e+03,3.150000000000000000e+03
6.001200000000000000e+04,4.395000000000000000e+03,3.150000000000000000e+03
6.001200000000000000e+04,4.395000000000000000e+03,3.150000000000000000e+03
6.000500000000000000e+04,4.395000000000000000e+03,2.888000000000000000e+03
6.000500000000000000e+04,4.382000000000000000e+03,2.888000000000000000e+03
6.000500000000000000e+04,4.382000000000000000e+03,2.888000000000000000e+03
6.000500000000000000e+04,4.382000000000000000e+03,2.888000000000000000e+03
6.000700000000000000e+04,4.382000000000000000e+03,2.548000000000000000e+03
6.000700000000000000e+04,4.365000000000000000e+03,2.548000000000000000e+03
6.000700000000000000e+04,4.365000000000000000e+03,2.548000000000000000e+03
6.000700000000000000e+04,4.365000000000000000e+03,2.548000000000000000e+03
6.000700000000000000e+04,4.365000000000000000e+03,2.271000000000000000e+03
6.000700000000000000e+04,4.383000000000000000e+03,2.271000000000000000e+03
6.000700000000000000e+04,4.383000000000000000e+03,2.271000000000000000e+03
6.000700000000000000e+04,4.383000000000000000e+03,2.271000000000000000e+03
6.001600000000000000e+04,4.383000000000000000e+03,2.244000000000000000e+03
6.001600000000000000e+04,4.403000000000000000e+03,2.244000000000000000e+03
6.001600000000000000e+04,4.403000000000000000e+03,2.244000000000000000e+03
6.001600000000000000e+04,4.403000000000000000e+03,2.244000000000000000e+03
6.001400000000000000e+04,4.403000000000000000e+03,2.158000000000000000e+03
6.001400000000000000e+04,4.401000000000000000e+03,2.158000000000000000e+03
6.001400000000000000e+04,4.401000000000000000e+03,2.158000000000000000e+03
6.001400000000000000e+04,4.401000000000000000e+03,2.158000000000000000e+03
6.001300000000000000e+04,4.401000000000000000e+03,2.176000000000000000e+03
6.001300000000000000e+04,4.401000000000000000e+03,2.176000000000000000e+03
6.001300000000000000e+04,4.401000000000000000e+03,2.176000000000000000e+03
6.001300000000000000e+04,4.401000000000000000e+03,2.176000000000000000e+03
6.001600000000000000e+04,4.401000000000000000e+03,1.957000000000000000e+03
6.001600000000000000e+04,4.381000000000000000e+03,1.957000000000000000e+03
6.001600000000000000e+04,4.381000000000000000e+03,1.957000000000000000e+03
6.001600000000000000e+04,4.381000000000000000e+03,1.957000000000000000e+03
6.001100000000000000e+04,4.381000000000000000e+03,1.881000000000000000e+03
6.001100000000000000e+04,4.384000000000000000e+03,1.881000000000000000e+03
6.001100000000000000e+04,4.384000000000000000e+03,1.881000000000000000e+03
6.001100000000000000e+04,4.384000000000000000e+03,1.881000000000000000e+03
6.001000000000000000e+04,4.384000000000000000e+03,1.870000000000000000e+03
6.001000000000000000e+04,4.366000000000000000e+03,1.870000000000000000e+03
6.001000000000000000e+04,4.366000000000000000e+03,1.870000000000000000e+03
6.001000000000000000e+04,4.366000000000000000e+03,1.870000000000000000e+03
6.001700000000000000e+04,4.366000000000000000e+03,1.929000000000000000e+03
6.001700000000000000e+04,4.376000000000000000e+03,1.929000000000000000e+03
6.001700000000000000e+04,4.376000000000000000e+03,1.929000000000000000e+03
6.001700000000000000e+04,4.376000000000000000e+03,1.929000000000000000e+03
6.001400000000000000e+04,4.376000000000000000e+03,1.937000000000000000e+03
6.001400000000000000e+04,4.368000000000000000e+03,1.937000000000000000e+03
6.001400000000000000e+04,4.368000000000000000e+03,1.937000000000000000e+03
6.001400000000000000e+04,4.368000000000000000e+03,1.937000000000000000e+03
6.002000000000000000e+04,4.368000000000000000e+03,1.654000000000000000e+03
6.002000000000000000e+04,4.351000000000000000e+03,1.654000000000000000e+03
6.002000000000000000e+04,4.351000000000000000e+03,1.654000000000000000e+03
6.002000000000000000e+04,4.351000000000000000e+03,1.654000000000000000e+03
6.001100000000000000e+04,4.351000000000000000e+03,1.591000000000000000e+03
6.001100000000000000e+04,4.346000000000000000e+03,1.591000000000000000e+03
6.001100000000000000e+04,4.346000000000000000e+03,1.591000000000000000e+03
6.001100000000000000e+04,4.346000000000000000e+03,1.591000000000000000e+03
6.001800000000000000e+04,4.346000000000000000e+03,1.647000000000000000e+03
6.001800000000000000e+04,4.348000000000000000e+03,1.647000000000000000e+03
6.001800000000000000e+04,4.348000000000000000e+03,1.647000000000000000e+03
6.001800000000000000e+04,4.348000000000000000e+03,1.647000000000000000e+03
6.001100000000000000e+04,4.348000000000000000e+03,1.797000000000000000e+03
6.001100000000000000e+04,4.350000000000000000e+03,1.797000000000000000e+03
6.001100000000000000e+04,4.350000000000000000e+03,1.797000000000000000e+03
6.001100000000000000e+04,4.350000000000000000e+03,1.797000000000000000e+03
6.001900000000000000e+04,4.350000000000000000e+03,1.783000000000000000e+03
6.001900000000000000e+04,4.364000000000000000e+03,1.783000000000000000e+03
6.001900000000000000e+04,4.364000000000000000e+03,1.783000000000000000e+03
6.001900000000000000e+04,4.364000000000000000e+03,1.783000000000000000e+03
6.001100000000000000e+04,4.364000000000000000e+03,1.638000000000000000e+03
6.001100000000000000e+04,4.368000000000000000e+03,1.638000000000000000e+03
6.001100000000000000e+04,4.368000000000000000e+03,1.638000000000000000e+03
6.001100000000000000e+04,4.368000000000000000e+03,1.638000000000000000e+03
6.001500000000000000e+04,4.368000000000000000e+03,1.413000000000000000e+03
6.001500000000000000e+04,4.379000000000000000e+03,1.413000000000000000e+03
6.001500000000000000e+04,4.379000000000000000e+03,1.413000000000000000e+03
6.001500000000000000e+04,4.379000000000000000e+03,1.413000000000000000e+03
6.001700000000000000e+04,4.379000000000000000e+03,1.575000000000000000e+03
6.001700000000000000e+04,4.372000000000000000e+03,1.575000000000000000e+03
6.001700000000000000e+04,4.372000000000000000e+03,1.575000000000000000e+03
6.001700000000000000e+04,4.372000000000000000e+03,1.575000000000000000e+03
6.001600000000000000e+04,4.372000000000000000e+03,1.805000000000000000e+03
6.001600000000000000e+04,4.370000000000000000e+03,1.805000000000000000e+03
6.001600000000000000e+04,4.370000000000000000e+03,1.805000000000000000e+03
6.001600000000000000e+04,4.370000000000000000e+03,1.805000000000000000e+03
6.001700000000000000e+04,4.370000000000000000e+03,1.663000000000000000e+03
6.001700000000000000e+04,4.374000000000000000e+03,1.663000000000000000e+03
6.001700000000000000e+04,4.374000000000000000e+03,1.663000000000000000e+03
6.001700000000000000e+04,4.374000000000000000e+03,1.663000000000000000e+03
6.002000000000000000e+04,4.374000000000000000e+03,1.541000000000000000e+03
6.002000000000000000e+04,4.388000000000000000e+03,1.541000000000000000e+03
6.002000000000000000e+04,4.388000000000000000e+03,1.541000000000000000e+03
6.002000000000000000e+04,4.388000000000000000e+03,1.541000000000000000e+03
6.001600000000000000e+04,4.388000000000000000e+03,1.402000000000000000e+03
6.001600000000000000e+04,4.400000000000000000e+03,1.402000000000000000e+03
6.001600000000000000e+04,4.400000000000000000e+03,1.402000000000000000e+03
6.001600000000000000e+04,4.400000000000000000e+03,1.402000000000000000e+03
6.002100000000000000e+04,4.400000000000000000e+03,1.498000000000000000e+03
6.002100000000000000e+04,4.396000000000000000e+03,1.498000000000000000e+03
6.002100000000000000e+04,4.396000000000000000e+03,1.498000000000000000e+03
6.002100000000000000e+04,4.396000000000000000e+03,1.498000000000000000e+03
6.001800000000000000e+04,4.396000000000000000e+03,1.591000000000000000e+03
6.001800000000000000e+04,4.384000000000000000e+03,1.591000000000000000e+03
6.001800000000000000e+04,4.384000000000000000e+03,1.591000000000000000e+03
6.001800000000000000e+04,4.384000000000000000e+03,1.591000000000000000e+03
6.002300000000000000e+04,4.384000000000000000e+03,1.432000000000000000e+03
6.002300000000000000e+04,4.390000000000000000e+03,1.432000000000000000e+03
6.002300000000000000e+04,4.390000000000000000e+03,1.432000000000000000e+03
6.002300000000000000e+04,4.390000000000000000e+03,1.432000000000000000e+03
6.001600000000000000e+04,4.390000000000000000e+03,1.228000000000000000e+03
6.001600000000000000e+04,4.389000000000000000e+03,1.228000000000000000e+03
6.001600000000000000e+04,4.389000000000000000e+03,1.228000000000000000e+03
6.001600000000000000e+04,4.389000000000000000e+03,1.228000000000000000e+03
6.002300000000000000e+04,4.389000000000000000e+03,1.270000000000000000e+03
6.002300000000000000e+04,4.386000000000000000e+03,1.270000000000000000e+03
6.002300000000000000e+04,4.386000000000000000e+03,1.270000000000000000e+03
6.002300000000000000e+04,4.386000000000000000e+03,1.270000000000000000e+03
6.002100000000000000e+04,4.386000000000000000e+03,1.381000000000000000e+03
6.002100000000000000e+04,4.395000000000000000e+03,1.381000000000000000e+03
6.002100000000000000e+04,4.395000000000000000e+03,1.381000000000000000e+03
6.002100000000000000e+04,4.395000000000000000e+03,1.381000000000000000e+03
6.002200000000000000e+04,4.395000000000000000e+03,1.390000000000000000e+03
6.002200000000000000e+04,4.390000000000000000e+03,1.390000000000000000e+03
6.002200000000000000e+04,4.390000000000000000e+03,1.390000000000000000e+03
6.002200000000000000e+04,4.390000000000000000e+03,1.390000000000000000e+03
6.002200000000000000e+04,4.390000000000000000e+03,1.402000000000000000e+03
6.002200000000000000e+04,4.401000000000000000e+03,1.402000000000000000e+03
6.002200000000000000e+04,4.401000000000000000e+03,1.402000000000000000e+03
6.002200000000000000e+04,4.401000000000000000e+03,1.402000000000000000e+03
6.002100000000000000e+04,4.401000000000000000e+03,1.041000000000000000e+03
6.002100000000000000e+04,4.407000000000000000e+03,1.041000000000000000e+03
6.002100000000000000e+04,4.407000000000000000e+03,1.041000000000000000e+03
6.002100000000000000e+04,4.407000000000000000e+03,1.041000000000000000e+03
6.002600000000000000e+04,4.407000000000000000e+03,1.158000000000000000e+03
6.002600000000000000e+04,4.419000000000000000e+03,1.158000000000000000e+03
6.002600000000000000e+04,4.419000000000000000e+03,1.158000000000000000e+03
6.002600000000000000e+04,4.419000000000000000e+03,1.158000000000000000e+03
6.002000000000000000e+04,4.419000000000000000e+03,1.911000000000000000e+03
6.002000000000000000e+04,4.429000000000000000e+03,1.911000000000000000e+03
6.002000000000000000e+04,4.429000000000000000e+03,1.911000000000000000e+03
6.002000000000000000e+04,4.429000000000000000e+03,1.911000000000000000e+03
6.002500000000000000e+04,4.429000000000000000e+03,1.966000000000000000e+03
6.002500000000000000e+04,4.428000000000000000e+03,1.966000000000000000e+03
6.002500000000000000e+04,4.428000000000000000e+03,1.966000000000000000e+03
6.002500000000000000e+04,4.428000000000000000e+03,1.966000000000000000e+03
6.003300000000000000e+04,4.428000000000000000e+03,1.027000000000000000e+03
6.003300000000000000e+04,4.429000000000000000e+03,1.027000000000000000e+03
6.003300000000000000e+04,4.429000000000000000e+03,1.027000000000000000e+03
6.003300000000000000e+04,4.429000000000000000e+03,1.027000000000000000e+03
6.003100000000000000e+04,4.429000000000000000e+03,1.023000000000000000e+03
6.003100000000000000e+04,4.438000000000000000e+03,1.023000000000000000e+03
6.003100000000000000e+04,4.438000000000000000e+03,1.023000000000000000e+03
6.003100000000000000e+04,4.438000000000000000e+03,1.023000000000000000e+03
6.002700000000000000e+04,4.438000000000000000e+03,8.980000000000000000e+02
6.002700000000000000e+04,4.439000000000000000e+03,8.980000000000000000e+02
6.002700000000000000e+04,4.439000000000000000e+03,8.980000000000000000e+02
6.002700000000000000e+04,4.439000000000000000e+03,8.980000000000000000e+02
6.003100000000000000e+04,4.439000000000000000e+03,1.134000000000000000e+03
6.003100000000000000e+04,4.440000000000000000e+03,1.134000000000000000e+03
6.003100000000000000e+04,4.440000000000000000e+03,1.134000000000000000e+03
6.003100000000000000e+04,4.440000000000000000e+03,1.134000000000000000e+03
6.003900000000000000e+04,4.440000000000000000e+03,1.265000000000000000e+03
6.003900000000000000e+04,4.442000000000000000e+03,1.265000000000000000e+03
6.003900000000000000e+04,4.442000000000000000e+03,1.265000000000000000e+03
6.003900000000000000e+04,4.442000000000000000e+03,1.265000000000000000e+03
6.003600000000000000e+04,4.442000000000000000e+03,1.323000000000000000e+03
6.003600000000000000e+04,4.435000000000000000e+03,1.323000000000000000e+03
6.003600000000000000e+04,4.435000000000000000e+03,1.323000000000000000e+03
6.003600000000000000e+04,4.435000000000000000e+03,1.323000000000000000e+03
6.003200000000000000e+04,4.435000000000000000e+03,1.041000000000000000e+03
6.003200000000000000e+04,4.446000000000000000e+03,1.041000000000000000e+03
6.003200000000000000e+04,4.446000000000000000e+03,1.041000000000000000e+03
6.003200000000000000e+04,4.446000000000000000e+03,1.041000000000000000e+03
6.004100000000000000e+04,4.446000000000000000e+03,1.176000000000000000e+03
6.004100000000000000e+04,4.445000000000000000e+03,1.176000000000000000e+03
6.004100000000000000e+04,4.445000000000000000e+03,1.176000000000000000e+03
6.004100000000000000e+04,4.445000000000000000e+03,1.176000000000000000e+03
6.004400000000000000e+04,4.445000000000000000e+03,1.376000000000000000e+03
6.004400000000000000e+04,4.451000000000000000e+03,1.376000000000000000e+03
6.004400000000000000e+04,4.451000000000000000e+03,1.376000000000000000e+03
6.004400000000000000e+04,4.451000000000000000e+03,1.376000000000000000e+03
6.002200000000000000e+04,4.451000000000000000e+03,1.527000000000000000e+03
6.002200000000000000e+04,4.423000000000000000e+03,1.527000000000000000e+03
6.002200000000000000e+04,4.423000000000000000e+03,1.527000000000000000e+03
6.002200000000000000e+04,4.423000000000000000e+03,1.527000000000000000e+03
6.001600000000000000e+04,4.423000000000000000e+03,1.488000000000000000e+03
6.001600000000000000e+04,4.395000000000000000e+03,1.488000000000000000e+03
6.001600000000000000e+04,4.395000000000000000e+03,1.488000000000000000e+03
6.001600000000000000e+04,4.395000000000000000e+03,1.488000000000000000e+03
5.999700000000000000e+04,4.395000000000000000e+03,1.311000000000000000e+03
5.999700000000000000e+04,4.358000000000000000e+03,1.311000000000000000e+03
5.999700000000000000e+04,4.358000000000000000e+03,1.311000000000000000e+03
5.999700000000000000e+04,4.358000000000000000e+03,1.311000000000000000e+03
5.998800000000000000e+04,4.358000000000000000e+03,1.340000000000000000e+03
5.998800000000000000e+04,4.354000000000000000e+03,1.340000000000000000e+03
5.998800000000000000e+04,4.354000000000000000e+03,1.340000000000000000e+03
5.998800000000000000e+04,4.354000000000000000e+03,1.340000000000000000e+03
5.998900000000000000e+04,4.354000000000000000e+03,1.265000000000000000e+03
5.998900000000000000e+04,4.339000000000000000e+03,1.265000000000000000e+03
5.998900000000000000e+04,4.339000000000000000e+03,1.265000000000000000e+03
5.998900000000000000e+04,4.339000000000000000e+03,1.265000000000000000e+03
5.999400000000000000e+04,4.339000000000000000e+03,1.211000000000000000e+03
5.999400000000000000e+04,4.358000000000000000e+03,1.211000000000000000e+03
5.999400000000000000e+04,4.358000000000000000e+03,1.211000000000000000e+03
5.999400000000000000e+04,4.358000000000000000e+03,1.211000000000000000e+03
6.000200000000000000e+04,4.358000000000000000e+03,1.030000000000000000e+03
6.000200000000000000e+04,4.384000000000000000e+03,1.030000000000000000e+03
6.000200000000000000e+04,4.384000000000000000e+03,1.030000000000000000e+03
6.000200000000000000e+04,4.384000000000000000e+03,1.030000000000000000e+03
5.999500000000000000e+04,4.384000000000000000e+03,9.010000000000000000e+02
5.999500000000000000e+04,4.383000000000000000e+03,9.010000000000000000e+02
5.999500000000000000e+04,4.383000000000000000e+03,9.010000000000000000e+02
5.999500000000000000e+04,4.383000000000000000e+03,9.010000000000000000e+02
5.999700000000000000e+04,4.383000000000000000e+03,1.002000000000000000e+03
5.999700000000000000e+04,4.384000000000000000e+03,1.002000000000000000e+03
5.999700000000000000e+04,4.384000000000000000e+03,1.002000000000000000e+03
5.999700000000000000e+04,4.384000000000000000e+03,1.002000000000000000e+03
6.000600000000000000e+04,4.384000000000000000e+03,1.064000000000000000e+03
6.000600000000000000e+04,4.390000000000000000e+03,1.064000000000000000e+03
6.000600000000000000e+04,4.390000000000000000e+03,1.064000000000000000e+03
6.000600000000000000e+04,4.390000000000000000e+03,1.064000000000000000e+03
6.000400000000000000e+04,4.390000000000000000e+03,1.014000000000000000e+03
6.000400000000000000e+04,4.378000000000000000e+03,1.014000000000000000e+03
6.000400000000000000e+04,4.378000000000000000e+03,1.014000000000000000e+03
6.000400000000000000e+04,4.378000000000000000e+03,1.014000000000000000e+03
6.000000000000000000e+04,4.378000000000000000e+03,1.215000000000000000e+03
6.000000000000000000e+04,4.369000000000000000e+03,1.215000000000000000e+03
6.000000000000000000e+04,4.369000000000000000e+03,1.215000000000000000e+03
6.000000000000000000e+04,4.369000000000000000e+03,1.215000000000000000e+03
6.000700000000000000e+04,4.369000000000000000e+03,9.570000000000000000e+02
6.000700000000000000e+04,4.390000000000000000e+03,9.570000000000000000e+02
6.000700000000000000e+04,4.390000000000000000e+03,9.570000000000000000e+02
6.000700000000000000e+04,4.390000000000000000e+03,9.570000000000000000e+02
5.999200000000000000e+04,4.390000000000000000e+03,9.580000000000000000e+02
5.999200000000000000e+04,4.401000000000000000e+03,9.580000000000000000e+02
5.999200000000000000e+04,4.401000000000000000e+03,9.580000000000000000e+02
5.999200000000000000e+04,4.401000000000000000e+03,9.580000000000000000e+02
5.999500000000000000e+04,4.401000000000000000e+03,1.067000000000000000e+03
5.999500000000000000e+04,4.396000000000000000e+03,1.067000000000000000e+03
5.999500000000000000e+04,4.396000000000000000e+03,1.067000000000000000e+03
5.999500000000000000e+04,4.396000000000000000e+03,1.067000000000000000e+03
5.999900000000000000e+04,4.396000000000000000e+03,1.123000000000000000e+03
5.999900000000000000e+04,4.385000000000000000e+03,1.123000000000000000e+03
5.999900000000000000e+04,4.385000000000000000e+03,1.123000000000000000e+03
5.999900000000000000e+04,4.385000000000000000e+03,1.123000000000000000e+03
5.999700000000000000e+04,4.385000000000000000e+03,8.750000000000000000e+02
5.999700000000000000e+04,4.402000000000000000e+03,8.750000000000000000e+02
5.999700000000000000e+04,4.402000000000000000e+03,8.750000000000000000e+02
5.999700000000000000e+04,4.402000000000000000e+03,8.750000000000000000e+02
5.999100000000000000e+04,4.402000000000000000e+03,8.290000000000000000e+02
5.999100000000000000e+04,4.396000000000000000e+03,8.290000000000000000e+02
5.999100000000000000e+04,4.396000000000000000e+03,8.290000000000000000e+02
5.999100000000000000e+04,4.396000000000000000e+03,8.290000000000000000e+02
5.999800000000000000e+04,4.396000000000000000e+03,9.850000000000000000e+02
5.999800000000000000e+04,4.415000000000000000e+03,9.850000000000000000e+02
5.999800000000000000e+04,4.415000000000000000e+03,9.850000000000000000e+02
5.999800000000000000e+04,4.415000000000000000e+03,9.850000000000000000e+02
5.999200000000000000e+04,4.415000000000000000e+03,9.050000000000000000e+02
5.999200000000000000e+04,4.420000000000000000e+03,9.050000000000000000e+02
5.999200000000000000e+04,4.420000000000000000e+03,9.050000000000000000e+02
5.999200000000000000e+04,4.420000000000000000e+03,9.050000000000000000e+02
5.999800000000000000e+04,4.420000000000000000e+03,1.096000000000000000e+03
5.999800000000000000e+04,4.420000000000000000e+03,1.096000000000000000e+03
5.999800000000000000e+04,4.420000000000000000e+03,1.096000000000000000e+03
5.999800000000000000e+04,4.420000000000000000e+03,1.096000000000000000e+03
5.999300000000000000e+04,4.420000000000000000e+03,8.530000000000000000e+02
5.999300000000000000e+04,4.443000000000000000e+03,8.530000000000000000e+02
5.999300000000000000e+04,4.443000000000000000e+03,8.530000000000000000e+02
5.999300000000000000e+04,4.443000000000000000e+03,8.530000000000000000e+02
5.999200000000000000e+04,4.443000000000000000e+03,8.350000000000000000e+02
5.999200000000000000e+04,4.450000000000000000e+03,8.350000000000000000e+02
5.999200000000000000e+04,4.450000000000000000e+03,8.350000000000000000e+02
5.999200000000000000e+04,4.450000000000000000e+03,8.350000000000000000e+02
5.999000000000000000e+04,4.450000000000000000e+03,8.230000000000000000e+02
5.999000000000000000e+04,4.453000000000000000e+03,8.230000000000000000e+02
5.999000000000000000e+04,4.453000000000000000e+03,8.230000000000000000e+02
5.999000000000000000e+04,4.453000000000000000e+03,8.230000000000000000e+02
5.999700000000000000e+04,4.453000000000000000e+03,1.020000000000000000e+03
5.999700000000000000e+04,4.476000000000000000e+03,1.020000000000000000e+03
5.999700000000000000e+04,4.476000000000000000e+03,1.020000000000000000e+03
5.999700000000000000e+04,4.476000000000000000e+03,1.020000000000000000e+03
6.000300000000000000e+04,4.476000000000000000e+03,1.033000000000000000e+03
6.000300000000000000e+04,4.484000000000000000e+03,1.033000000000000000e+03
6.000300000000000000e+04,4.484000000000000000e+03,1.033000000000000000e+03
6.000300000000000000e+04,4.484000000000000000e+03,1.033000000000000000e+03
6.000100000000000000e+04,4.484000000000000000e+03,7.160000000000000000e+02
6.000100000000000000e+04,4.488000000000000000e+03,7.160000000000000000e+02
6.000100000000000000e+04,4.488000000000000000e+03,7.160000000000000000e+02
6.000100000000000000e+04,4.488000000000000000e+03,7.160000000000000000e+02
6.000600000000000000e+04,4.488000000000000000e+03,6.150000000000000000e+02
6.000600000000000000e+04,4.482000000000000000e+03,6.150000000000000000e+02
6.000600000000000000e+04,4.482000000000000000e+03,6.150000000000000000e+02
6.000600000000000000e+04,4.482000000000000000e+03,6.150000000000000000e+02
6.000200000000000000e+04,4.482000000000000000e+03,7.520000000000000000e+02
6.000200000000000000e+04,4.504000000000000000e+03,7.520000000000000000e+02
6.000200000000000000e+04,4.504000000000000000e+03,7.520000000000000000e+02
6.000200000000000000e+04,4.504000000000000000e+03,7.520000000000000000e+02
6.001100000000000000e+04,4.504000000000000000e+03,9.660000000000000000e+02
6.001100000000000000e+04,4.517000000000000000e+03,9.660000000000000000e+02
6.001100000000000000e+04,4.517000000000000000e+03,9.660000000000000000e+02
6.001100000000000000e+04,4.517000000000000000e+03,9.660000000000000000e+02
6.001800000000000000e+04,4.517000000000000000e+03,9.030000000000000000e+02
6.001800000000000000e+04,4.536000000000000000e+03,9.030000000000000000e+02
6.001800000000000000e+04,4.536000000000000000e+03,9.030000000000000000e+02
6.001800000000000000e+04,4.536000000000000000e+03,9.030000000000000000e+02
6.001000000000000000e+04,4.536000000000000000e+03,8.380000000000000000e+02
6.001000000000000000e+04,4.528000000000000000e+03,8.380000000000000000e+02
6.001000000000000000e+04,4.528000000000000000e+03,8.380000000000000000e+02
6.001000000000000000e+04,4.528000000000000000e+03,8.380000000000000000e+02
6.001100000000000000e+04,4.528000000000000000e+03,7.840000000000000000e+02
6.001100000000000000e+04,4.540000000000000000e+03,7.840000000000000000e+02
6.001100000000000000e+04,4.540000000000000000e+03,7.840000000000000000e+02
6.001100000000000000e+04,4.540000000000000000e+03,7.840000000000000000e+02
6.001800000000000000e+04,4.540000000000000000e+03,8.890000000000000000e+02
6.001800000000000000e+04,4.537000000000000000e+03,8.890000000000000000e+02
6.001800000000000000e+04,4.537000000000000000e+03,8.890000000000000000e+02
6.001800000000000000e+04,4.537000000000000000e+03,8.890000000000000000e+02
6.001000000000000000e+04,4.537000000000000000e+03,9.310000000000000000e+02
6.001000000000000000e+04,4.546000000000000000e+03,9.310000000000000000e+02
6.001000000000000000e+04,4.546000000000000000e+03,9.310000000000000000e+02
6.001000000000000000e+04,4.546000000000000000e+03,9.310000000000000000e+02
6.001300000000000000e+04,4.546000000000000000e+03,1.278000000000000000e+03
6.001300000000000000e+04,4.543000000000000000e+03,1.278000000000000000e+03
6.001300000000000000e+04,4.543000000000000000e+03,1.278000000000000000e+03
6.001300000000000000e+04,4.543000000000000000e+03,1.278000000000000000e+03
6.001400000000000000e+04,4.543000000000000000e+03,1.863000000000000000e+03
6.001400000000000000e+04,4.554000000000000000e+03,1.863000000000000000e+03
6.001400000000000000e+04,4.554000000000000000e+03,1.863000000000000000e+03
6.001400000000000000e+04,4.554000000000000000e+03,1.863000000000000000e+03
6.000800000000000000e+04,4.554000000000000000e+03,6.030000000000000000e+02
6.000800000000000000e+04,4.548000000000000000e+03,6.030000000000000000e+02
6.000800000000000000e+04,4.548000000000000000e+03,6.030000000000000000e+02
6.000800000000000000e+04,4.548000000000000000e+03,6.030000000000000000e+02
6.001000000000000000e+04,4.548000000000000000e+03,9.640000000000000000e+02
6.001000000000000000e+04,4.547000000000000000e+03,9.640000000000000000e+02
6.001000000000000000e+04,4.547000000000000000e+03,9.640000000000000000e+02
6.001000000000000000e+04,4.547000000000000000e+03,9.640000000000000000e+02
6.003100000000000000e+04,4.547000000000000000e+03,9.990000000000000000e+02
6.003100000000000000e+04,4.556000000000000000e+03,9.990000000000000000e+02
6.003100000000000000e+04,4.556000000000000000e+03,9.990000000000000000e+02
6.003100000000000000e+04,4.556000000000000000e+03,9.990000000000000000e+02
6.001300000000000000e+04,4.556000000000000000e+03,8.740000000000000000e+02
6.001300000000000000e+04,4.563000000000000000e+03,8.740000000000000000e+02
6.001300000000000000e+04,4.563000000000000000e+03,8.740000000000000000e+02
6.001300000000000000e+04,4.563000000000000000e+03,8.740000000000000000e+02
6.001800000000000000e+04,4.563000000000000000e+03,7.780000000000000000e+02
6.001800000000000000e+04,4.557000000000000000e+03,7.780000000000000000e+02
6.001800000000000000e+04,4.557000000000000000e+03,7.780000000000000000e+02
6.001800000000000000e+04,4.557000000000000000e+03,7.780000000000000000e+02
6.002300000000000000e+04,4.557000000000000000e+03,9.330000000000000000e+02
6.002300000000000000e+04,4.572000000000000000e+03,9.330000000000000000e+02
6.002300000000000000e+04,4.572000000000000000e+03,9.330000000000000000e+02
6.002300000000000000e+04,4.572000000000000000e+03,9.330000000000000000e+02
6.002000000000000000e+04,4.572000000000000000e+03,1.030000000000000000e+03
6.002000000000000000e+04,4.592000000000000000e+03,1.030000000000000000e+03
6.002000000000000000e+04,4.592000000000000000e+03,1.030000000000000000e+03
6.002000000000000000e+04,4.592000000000000000e+03,1.030000000000000000e+03
6.002200000000000000e+04,4.592000000000000000e+03,1.294000000000000000e+03
6.002200000000000000e+04,4.577000000000000000e+03,1.294000000000000000e+03
6.002200000000000000e+04,4.577000000000000000e+03,1.294000000000000000e+03
6.002200000000000000e+04,4.577000000000000000e+03,1.294000000000000000e+03
6.002300000000000000e+04,4.577000000000000000e+03,1.116000000000000000e+03
6.002300000000000000e+04,4.573000000000000000e+03,1.116000000000000000e+03
6.002300000000000000e+04,4.573000000000000000e+03,1.116000000000000000e+03
6.002300000000000000e+04,4.573000000000000000e+03,1.116000000000000000e+03
6.002500000000000000e+04,4.573000000000000000e+03,1.084000000000000000e+03
6.002500000000000000e+04,4.590000000000000000e+03,1.084000000000000000e+03
6.002500000000000000e+04,4.590000000000000000e+03,1.084000000000000000e+03
6.002500000000000000e+04,4.590000000000000000e+03,1.084000000000000000e+03
6.001300000000000000e+04,4.590000000000000000e+03,1.213000000000000000e+03
6.001300000000000000e+04,4.594000000000000000e+03,1.213000000000000000e+03
6.001300000000000000e+04,4.594000000000000000e+03,1.213000000000000000e+03
6.001300000000000000e+04,4.594000000000000000e+03,1.213000000000000000e+03
6.001200000000000000e+04,4.594000000000000000e+03,1.289000000000000000e+03
6.001200000000000000e+04,4.587000000000000000e+03,1.289000000000000000e+03
6.001200000000000000e+04,4.587000000000000000e+03,1.289000000000000000e+03
6.001200000000000000e+04,4.587000000000000000e+03,1.289000000000000000e+03
5.999200000000000000e+04,4.587000000000000000e+03,1.314000000000000000e+03
5.999200000000000000e+04,4.560000000000000000e+03,1.314000000000000000e+03
5.999200000000000000e+04,4.560000000000000000e+03,1.314000000000000000e+03
5.999200000000000000e+04,4.560000000000000000e+03,1.314000000000000000e+03
5.998000000000000000e+04,4.560000000000000000e+03,1.247000000000000000e+03
5.998000000000000000e+04,4.564000000000000000e+03,1.247000000000000000e+03
5.998000000000000000e+04,4.564000000000000000e+03,1.247000000000000000e+03
5.998000000000000000e+04,4.564000000000000000e+03,1.247000000000000000e+03
5.998900000000000000e+04,4.564000000000000000e+03,6.290000000000000000e+02
5.998900000000000000e+04,4.565000000000000000e+03,6.290000000000000000e+02
5.998900000000000000e+04,4.565000000000000000e+03,6.290000000000000000e+02
5.998900000000000000e+04,4.565000000000000000e+03,6.290000000000000000e+02
5.999500000000000000e+04,4.565000000000000000e+03,6.860000000000000000e+02
5.999500000000000000e+04,4.569000000000000000e+03,6.860000000000000000e+02
5.999500000000000000e+04,4.569000000000000000e+03,6.860000000000000000e+02
5.999500000000000000e+04,4.569000000000000000e+03,6.860000000000000000e+02
5.999200000000000000e+04,4.569000000000000000e+03,7.720000000000000000e+02
5.999200000000000000e+04,4.569000000000000000e+03,7.720000000000000000e+02
5.999200000000000000e+04,4.569000000000000000e+03,7.720000000000000000e+02
5.999200000000000000e+04,4.569000000000000000e+03,7.720000000000000000e+02
6.000600000000000000e+04,4.569000000000000000e+03,8.280000000000000000e+02
6.000600000000000000e+04,4.571000000000000000e+03,8.280000000000000000e+02
6.000600000000000000e+04,4.571000000000000000e+03,8.280000000000000000e+02
6.000600000000000000e+04,4.571000000000000000e+03,8.280000000000000000e+02
5.999600000000000000e+04,4.571000000000000000e+03,7.930000000000000000e+02
5.999600000000000000e+04,4.562000000000000000e+03,7.930000000000000000e+02
5.999600000000000000e+04,4.562000000000000000e+03,7.930000000000000000e+02
5.999600000000000000e+04,4.562000000000000000e+03,7.930000000000000000e+02
6.000100000000000000e+04,4.562000000000000000e+03,8.050000000000000000e+02
6.000100000000000000e+04,4.577000000000000000e+03,8.050000000000000000e+02
6.000100000000000000e+04,4.577000000000000000e+03,8.050000000000000000e+02
6.000100000000000000e+04,4.577000000000000000e+03,8.050000000000000000e+02
5.999700000000000000e+04,4.577000000000000000e+03,6.490000000000000000e+02
5.999700000000000000e+04,4.554000000000000000e+03,6.490000000000000000e+02
5.999700000000000000e+04,4.554000000000000000e+03,6.490000000000000000e+02
5.999700000000000000e+04,4.554000000000000000e+03,6.490000000000000000e+02
5.999400000000000000e+04,4.554000000000000000e+03,8.310000000000000000e+02
5.999400000000000000e+04,4.564000000000000000e+03,8.310000000000000000e+02
5.999400000000000000e+04,4.564000000000000000e+03,8.310000000000000000e+02
5.999400000000000000e+04,4.564000000000000000e+03,8.310000000000000000e+02
6.000100000000000000e+04,4.564000000000000000e+03,9.390000000000000000e+02
6.000100000000000000e+04,4.571000000000000000e+03,9.390000000000000000e+02
6.000100000000000000e+04,4.571000000000000000e+03,9.390000000000000000e+02
6.000100000000000000e+04,4.571000000000000000e+03,9.390000000000000000e+02
5.998900000000000000e+04,4.571000000000000000e+03,7.800000000000000000e+02
5.998900000000000000e+04,4.573000000000000000e+03,7.800000000000000000e+02
5.998900000000000000e+04,4.573000000000000000e+03,7.800000000000000000e+02
5.998900000000000000e+04,4.573000000000000000e+03,7.800000000000000000e+02
5.998800000000000000e+04,4.573000000000000000e+03,5.750000000000000000e+02
5.998800000000000000e+04,4.558000000000000000e+03,5.750000000000000000e+02
5.998800000000000000e+04,4.558000000000000000e+03,5.750000000000000000e+02
5.998800000000000000e+04,4.558000000000000000e+03,5.750000000000000000e+02
5.998200000000000000e+04,4.558000000000000000e+03,6.900000000000000000e+02
5.998200000000000000e+04,4.544000000000000000e+03,6.900000000000000000e+02
5.998200000000000000e+04,4.544000000000000000e+03,6.900000000000000000e+02
5.998200000000000000e+04,4.544000000000000000e+03,6.900000000000000000e+02
5.998600000000000000e+04,4.544000000000000000e+03,9.600000000000000000e+02
5.998600000000000000e+04,4.529000000000000000e+03,9.600000000000000000e+02
5.998600000000000000e+04,4.529000000000000000e+03,9.600000000000000000e+02
5.998600000000000000e+04,4.529000000000000000e+03,9.600000000000000000e+02
5.998700000000000000e+04,4.529000000000000000e+03,8.980000000000000000e+02
5.998700000000000000e+04,4.541000000000000000e+03,8.980000000000000000e+02
5.998700000000000000e+04,4.541000000000000000e+03,8.980000000000000000e+02
5.998700000000000000e+04,4.541000000000000000e+03,8.980000000000000000e+02
5.998200000000000000e+04,4.541000000000000000e+03,7.470000000000000000e+02
5.998200000000000000e+04,4.533000000000000000e+03,7.470000000000000000e+02
5.998200000000000000e+04,4.533000000000000000e+03,7.470000000000000000e+02
5.998200000000000000e+04,4.533000000000000000e+03,7.470000000000000000e+02
5.997300000000000000e+04,4.533000000000000000e+03,6.860000000000000000e+02
5.997300000000000000e+04,4.555000000000000000e+03,6.860000000000000000e+02
5.997300000000000000e+04,4.555000000000000000e+03,6.860000000000000000e+02
5.997300000000000000e+04,4.555000000000000000e+03,6.860000000000000000e+02
6.000400000000000000e+04,4.555000000000000000e+03,6.300000000000000000e+02
6.000400000000000000e+04,4.537000000000000000e+03,6.300000000000000000e+02
6.000400000000000000e+04,4.537000000000000000e+03,6.300000000000000000e+02
6.000400000000000000e+04,4.537000000000000000e+03,6.300000000000000000e+02
5.998500000000000000e+04,4.537000000000000000e+03,1.016000000000000000e+03
5.998500000000000000e+04,4.547000000000000000e+03,1.016000000000000000e+03
5.998500000000000000e+04,4.547000000000000000e+03,1.016000000000000000e+03
5.998500000000000000e+04,4.547000000000000000e+03,1.016000000000000000e+03
5.998800000000000000e+04,4.547000000000000000e+03,8.230000000000000000e+02
5.998800000000000000e+04,4.544000000000000000e+03,8.230000000000000000e+02
5.998800000000000000e+04,4.544000000000000000e+03,8.230000000000000000e+02
5.998800000000000000e+04,4.544000000000000000e+03,8.230000000000000000e+02
5.998700000000000000e+04,4.544000000000000000e+03,7.740000000000000000e+02
5.998700000000000000e+04,4.553000000000000000e+03,7.740000000000000000e+02
5.998700000000000000e+04,4.553000000000000000e+03,7.740000000000000000e+02
5.998700000000000000e+04,4.553000000000000000e+03,7.740000000000000000e+02
5.998600000000000000e+04,4.553000000000000000e+03,7.720000000000000000e+02
5.998600000000000000e+04,4.545000000000000000e+03,7.720000000000000000e+02
5.998600000000000000e+04,4.545000000000000000e+03,7.720000000000000000e+02
5.998600000000000000e+04,4.545000000000000000e+03,7.720000000000000000e+02
5.997900000000000000e+04,4.545000000000000000e+03,8.840000000000000000e+02
5.997900000000000000e+04,4.546000000000000000e+03,8.840000000000000000e+02
5.997900000000000000e+04,4.546000000000000000e+03,8.840000000000000000e+02
5.997900000000000000e+04,4.546000000000000000e+03,8.840000000000000000e+02
5.998900000000000000e+04,4.546000000000000000e+03,1.120000000000000000e+03
5.998900000000000000e+04,4.555000000000000000e+03,1.120000000000000000e+03
5.998900000000000000e+04,4.555000000000000000e+03,1.120000000000000000e+03
5.998900000000000000e+04,4.555000000000000000e+03,1.120000000000000000e+03
5.999000000000000000e+04,4.555000000000000000e+03,1.108000000000000000e+03
5.999000000000000000e+04,4.564000000000000000e+03,1.108000000000000000e+03
5.999000000000000000e+04,4.564000000000000000e+03,1.108000000000000000e+03
5.999000000000000000e+04,4.564000000000000000e+03,1.108000000000000000e+03
5.998200000000000000e+04,4.564000000000000000e+03,9.940000000000000000e+02
5.998200000000000000e+04,4.557000000000000000e+03,9.940000000000000000e+02
5.998200000000000000e+04,4.557000000000000000e+03,9.940000000000000000e+02
5.998200000000000000e+04,4.557000000000000000e+03,9.940000000000000000e+02
5.998500000000000000e+04,4.557000000000000000e+03,9.550000000000000000e+02
5.998500000000000000e+04,4.572000000000000000e+03,9.550000000000000000e+02
5.998500000000000000e+04,4.572000000000000000e+03,9.550000000000000000e+02
5.998500000000000000e+04,4.572000000000000000e+03,9.550000000000000000e+02
5.998200000000000000e+04,4.572000000000000000e+03,9.630000000000000000e+02
5.998200000000000000e+04,4.575000000000000000e+03,9.630000000000000000e+02
5.998200000000000000e+04,4.575000000000000000e+03,9.630000000000000000e+02
5.998200000000000000e+04,4.575000000000000000e+03,9.630000000000000000e+02
5.998000000000000000e+04,4.575000000000000000e+03,8.640000000000000000e+02
5.998000000000000000e+04,4.567000000000000000e+03,8.640000000000000000e+02
5.998000000000000000e+04,4.567000000000000000e+03,8.640000000000000000e+02
5.998000000000000000e+04,4.567000000000000000e+03,8.640000000000000000e+02
5.998400000000000000e+04,4.567000000000000000e+03,1.180000000000000000e+03
5.998400000000000000e+04,4.555000000000000000e+03,1.180000000000000000e+03
5.998400000000000000e+04,4.555000000000000000e+03,1.180000000000000000e+03
5.998400000000000000e+04,4.555000000000000000e+03,1.180000000000000000e+03
5.998300000000000000e+04,4.555000000000000000e+03,1.822000000000000000e+03
5.998300000000000000e+04,4.568000000000000000e+03,1.822000000000000000e+03
5.998300000000000000e+04,4.568000000000000000e+03,1.822000000000000000e+03
5.998300000000000000e+04,4.568000000000000000e+03,1.822000000000000000e+03
5.999100000000000000e+04,4.568000000000000000e+03,1.142000000000000000e+03
5.999100000000000000e+04,4.568000000000000000e+03,1.142000000000000000e+03
5.999100000000000000e+04,4.568000000000000000e+03,1.142000000000000000e+03
5.999100000000000000e+04,4.568000000000000000e+03,1.142000000000000000e+03
5.997800000000000000e+04,4.568000000000000000e+03,8.970000000000000000e+02
5.997800000000000000e+04,4.572000000000000000e+03,8.970000000000000000e+02
5.997800000000000000e+04,4.572000000000000000e+03,8.970000000000000000e+02
5.997800000000000000e+04,4.572000000000000000e+03,8.970000000000000000e+02
5.999600000000000000e+04,4.572000000000000000e+03,1.056000000000000000e+03
5.999600000000000000e+04,4.568000000000000000e+03,1.056000000000000000e+03
5.999600000000000000e+04,4.568000000000000000e+03,1.056000000000000000e+03
5.999600000000000000e+04,4.568000000000000000e+03,1.056000000000000000e+03
5.998800000000000000e+04,4.568000000000000000e+03,9.250000000000000000e+02
5.998800000000000000e+04,4.585000000000000000e+03,9.250000000000000000e+02
5.998800000000000000e+04,4.585000000000000000e+03,9.250000000000000000e+02
5.998800000000000000e+04,4.585000000000000000e+03,9.250000000000000000e+02
5.999000000000000000e+04,4.585000000000000000e+03,7.320000000000000000e+02
5.999000000000000000e+04,4.583000000000000000e+03,7.320000000000000000e+02
5.999000000000000000e+04,4.583000000000000000e+03,7.320000000000000000e+02
5.999000000000000000e+04,4.583000000000000000e+03,7.320000000000000000e+02
5.999100000000000000e+04,4.583000000000000000e+03,7.740000000000000000e+02
5.999100000000000000e+04,4.579000000000000000e+03,7.740000000000000000e+02
5.999100000000000000e+04,4.579000000000000000e+03,7.740000000000000000e+02
5.999100000000000000e+04,4.579000000000000000e+03,7.740000000000000000e+02
5.999300000000000000e+04,4.579000000000000000e+03,1.076000000000000000e+03
5.999300000000000000e+04,4.570000000000000000e+03,1.076000000000000000e+03
5.999300000000000000e+04,4.570000000000000000e+03,1.076000000000000000e+03
5.999300000000000000e+04,4.570000000000000000e+03,1.076000000000000000e+03
5.999500000000000000e+04,4.570000000000000000e+03,1.096000000000000000e+03
5.999500000000000000e+04,4.580000000000000000e+03,1.096000000000000000e+03
5.999500000000000000e+04,4.580000000000000000e+03,1.096000000000000000e+03
5.999500000000000000e+04,4.580000000000000000e+03,1.096000000000000000e+03
6.000200000000000000e+04,4.580000000000000000e+03,1.190000000000000000e+03
6.000200000000000000e+04,4.583000000000000000e+03,1.190000000000000000e+03
6.000200000000000000e+04,4.583000000000000000e+03,1.190000000000000000e+03
6.000200000000000000e+04,4.583000000000000000e+03,1.190000000000000000e+03
5.999400000000000000e+04,4.583000000000000000e+03,1.101000000000000000e+03
5.999400000000000000e+04,4.590000000000000000e+03,1.101000000000000000e+03
5.999400000000000000e+04,4.590000000000000000e+03,1.101000000000000000e+03
5.999400000000000000e+04,4.590000000000000000e+03,1.101000000000000000e+03
5.997900000000000000e+04,4.590000000000000000e+03,1.213000000000000000e+03
5.997900000000000000e+04,4.564000000000000000e+03,1.213000000000000000e+03
5.997900000000000000e+04,4.564000000000000000e+03,1.213000000000000000e+03
5.997900000000000000e+04,4.564000000000000000e+03,1.213000000000000000e+03
5.995900000000000000e+04,4.564000000000000000e+03,1.465000000000000000e+03
5.995900000000000000e+04,4.515000000000000000e+03,1.465000000000000000e+03
5.995900000000000000e+04,4.515000000000000000e+03,1.465000000000000000e+03
5.995900000000000000e+04,4.515000000000000000e+03,1.465000000000000000e+03
5.994700000000000000e+04,4.515000000000000000e+03,1.528000000000000000e+03
5.994700000000000000e+04,4.479000000000000000e+03,1.528000000000000000e+03
5.994700000000000000e+04,4.479000000000000000e+03,1.528000000000000000e+03
5.994700000000000000e+04,4.479000000000000000e+03,1.528000000000000000e+03
5.994400000000000000e+04,4.479000000000000000e+03,1.313000000000000000e+03
5.994400000000000000e+04,4.476000000000000000e+03,1.313000000000000000e+03
5.994400000000000000e+04,4.476000000000000000e+03,1.313000000000000000e+03
5.994400000000000000e+04,4.476000000000000000e+03,1.313000000000000000e+03
5.994500000000000000e+04,4.476000000000000000e+03,1.031000000000000000e+03
5.994500000000000000e+04,4.468000000000000000e+03,1.031000000000000000e+03
5.994500000000000000e+04,4.468000000000000000e+03,1.031000000000000000e+03
5.994500000000000000e+04,4.468000000000000000e+03,1.031000000000000000e+03
5.994800000000000000e+04,4.468000000000000000e+03,1.062000000000000000e+03
5.994800000000000000e+04,4.499000000000000000e+03,1.062000000000000000e+03
5.994800000000000000e+04,4.499000000000000000e+03,1.062000000000000000e+03
5.994800000000000000e+04,4.499000000000000000e+03,1.062000000000000000e+03
5.995200000000000000e+04,4.499000000000000000e+03,1.147000000000000000e+03
5.995200000000000000e+04,4.509000000000000000e+03,1.147000000000000000e+03
5.995200000000000000e+04,4.509000000000000000e+03,1.147000000000000000e+03
5.995200000000000000e+04,4.509000000000000000e+03,1.147000000000000000e+03
5.995700000000000000e+04,4.509000000000000000e+03,1.198000000000000000e+03
5.995700000000000000e+04,4.510000000000000000e+03,1.198000000000000000e+03
5.995700000000000000e+04,4.510000000000000000e+03,1.198000000000000000e+03
5.995700000000000000e+04,4.510000000000000000e+03,1.198000000000000000e+03
5.995900000000000000e+04,4.510000000000000000e+03,1.174000000000000000e+03
5.995900000000000000e+04,4.503000000000000000e+03,1.174000000000000000e+03
5.995900000000000000e+04,4.503000000000000000e+03,1.174000000000000000e+03
5.995900000000000000e+04,4.503000000000000000e+03,1.174000000000000000e+03
5.994900000000000000e+04,4.503000000000000000e+03,9.800000000000000000e+02
5.994900000000000000e+04,4.502000000000000000e+03,9.800000000000000000e+02
5.994900000000000000e+04,4.502000000000000000e+03,9.800000000000000000e+02
5.994900000000000000e+04,4.502000000000000000e+03,9.800000000000000000e+02
