1.805000000000000000e+03,5.379000000000000000e+03,1.160000000000000000e+03
1.805000000000000000e+03,5.379000000000000000e+03,1.160000000000000000e+03
1.805000000000000000e+03,5.379000000000000000e+03,1.160000000000000000e+03
1.805000000000000000e+03,5.379000000000000000e+03,1.247000000000000000e+03
1.805000000000000000e+03,5.398000000000000000e+03,1.247000000000000000e+03
1.805000000000000000e+03,5.398000000000000000e+03,1.247000000000000000e+03
1.805000000000000000e+03,5.398000000000000000e+03,1.247000000000000000e+03
1.811000000000000000e+03,5.398000000000000000e+03,1.126000000000000000e+03
1.811000000000000000e+03,5.426000000000000000e+03,1.126000000000000000e+03
1.811000000000000000e+03,5.426000000000000000e+03,1.126000000000000000e+03
1.811000000000000000e+03,5.426000000000000000e+03,1.126000000000000000e+03
1.811000000000000000e+03,5.426000000000000000e+03,1.003000000000000000e+03
1.811000000000000000e+03,5.422000000000000000e+03,1.003000000000000000e+03
1.811000000000000000e+03,5.422000000000000000e+03,1.003000000000000000e+03
1.811000000000000000e+03,5.422000000000000000e+03,1.003000000000000000e+03
1.826000000000000000e+03,5.422000000000000000e+03,1.047000000000000000e+03
1.826000000000000000e+03,5.446000000000000000e+03,1.047000000000000000e+03
1.826000000000000000e+03,5.446000000000000000e+03,1.047000000000000000e+03
1.826000000000000000e+03,5.446000000000000000e+03,1.047000000000000000e+03
1.847000000000000000e+03,5.446000000000000000e+03,9.190000000000000000e+02
1.847000000000000000e+03,5.463000000000000000e+03,9.190000000000000000e+02
1.847000000000000000e+03,5.463000000000000000e+03,9.190000000000000000e+02
1.847000000000000000e+03,5.463000000000000000e+03,9.190000000000000000e+02
1.865000000000000000e+03,5.463000000000000000e+03,9.280000000000000000e+02
1.865000000000000000e+03,5.499000000000000000e+03,9.280000000000000000e+02
1.865000000000000000e+03,5.499000000000000000e+03,9.280000000000000000e+02
1.865000000000000000e+03,5.499000000000000000e+03,9.280000000000000000e+02
1.875000000000000000e+03,5.499000000000000000e+03,8.600000000000000000e+02
1.875000000000000000e+03,5.514000000000000000e+03,8.600000000000000000e+02
1.875000000000000000e+03,5.514000000000000000e+03,8.600000000000000000e+02
1.875000000000000000e+03,5.514000000000000000e+03,8.600000000000000000e+02
1.873000000000000000e+03,5.514000000000000000e+03,8.770000000000000000e+02
1.873000000000000000e+03,5.527000000000000000e+03,8.770000000000000000e+02
1.873000000000000000e+03,5.527000000000000000e+03,8.770000000000000000e+02
1.873000000000000000e+03,5.527000000000000000e+03,8.770000000000000000e+02
1.873000000000000000e+03,5.527000000000000000e+03,8.230000000000000000e+02
1.873000000000000000e+03,5.527000000000000000e+03,8.230000000000000000e+02
1.873000000000000000e+03,5.527000000000000000e+03,8.230000000000000000e+02
1.873000000000000000e+03,5.527000000000000000e+03,8.230000000000000000e+02
1.877000000000000000e+03,5.527000000000000000e+03,6.850000000000000000e+02
1.877000000000000000e+03,5.546000000000000000e+03,6.850000000000000000e+02
1.877000000000000000e+03,5.546000000000000000e+03,6.850000000000000000e+02
1.877000000000000000e+03,5.546000000000000000e+03,6.850000000000000000e+02
1.909000000000000000e+03,5.546000000000000000e+03,4.790000000000000000e+02
1.909000000000000000e+03,5.569000000000000000e+03,4.790000000000000000e+02
1.909000000000000000e+03,5.569000000000000000e+03,4.790000000000000000e+02
1.909000000000000000e+03,5.569000000000000000e+03,4.790000000000000000e+02
1.910000000000000000e+03,5.569000000000000000e+03,6.040000000000000000e+02
1.910000000000000000e+03,5.577000000000000000e+03,6.040000000000000000e+02
1.910000000000000000e+03,5.577000000000000000e+03,6.040000000000000000e+02
1.910000000000000000e+03,5.577000000000000000e+03,6.040000000000000000e+02
1.934000000000000000e+03,5.577000000000000000e+03,4.230000000000000000e+02
1.934000000000000000e+03,5.607000000000000000e+03,4.230000000000000000e+02
1.934000000000000000e+03,5.607000000000000000e+03,4.230000000000000000e+02
1.934000000000000000e+03,5.607000000000000000e+03,4.230000000000000000e+02
1.940000000000000000e+03,5.607000000000000000e+03,5.130000000000000000e+02
1.940000000000000000e+03,5.639000000000000000e+03,5.130000000000000000e+02
1.940000000000000000e+03,5.639000000000000000e+03,5.130000000000000000e+02
1.940000000000000000e+03,5.639000000000000000e+03,5.130000000000000000e+02
1.974000000000000000e+03,5.639000000000000000e+03,5.920000000000000000e+02
1.974000000000000000e+03,5.666000000000000000e+03,5.920000000000000000e+02
1.974000000000000000e+03,5.666000000000000000e+03,5.920000000000000000e+02
1.974000000000000000e+03,5.666000000000000000e+03,5.920000000000000000e+02
1.990000000000000000e+03,5.666000000000000000e+03,3.110000000000000000e+02
1.990000000000000000e+03,5.693000000000000000e+03,3.110000000000000000e+02
1.990000000000000000e+03,5.693000000000000000e+03,3.110000000000000000e+02
1.990000000000000000e+03,5.693000000000000000e+03,3.110000000000000000e+02
2.009000000000000000e+03,5.693000000000000000e+03,5.640000000000000000e+02
2.009000000000000000e+03,5.722000000000000000e+03,5.640000000000000000e+02
2.009000000000000000e+03,5.722000000000000000e+03,5.640000000000000000e+02
2.009000000000000000e+03,5.722000000000000000e+03,5.640000000000000000e+02
1.993000000000000000e+03,5.722000000000000000e+03,3.870000000000000000e+02
1.993000000000000000e+03,5.719000000000000000e+03,3.870000000000000000e+02
1.993000000000000000e+03,5.719000000000000000e+03,3.870000000000000000e+02
1.993000000000000000e+03,5.719000000000000000e+03,3.870000000000000000e+02
2.010000000000000000e+03,5.719000000000000000e+03,3.980000000000000000e+02
2.010000000000000000e+03,5.730000000000000000e+03,3.980000000000000000e+02
2.010000000000000000e+03,5.730000000000000000e+03,3.980000000000000000e+02
2.010000000000000000e+03,5.730000000000000000e+03,3.980000000000000000e+02
2.016000000000000000e+03,5.730000000000000000e+03,4.600000000000000000e+02
2.016000000000000000e+03,5.758000000000000000e+03,4.600000000000000000e+02
2.016000000000000000e+03,5.758000000000000000e+03,4.600000000000000000e+02
2.016000000000000000e+03,5.758000000000000000e+03,4.600000000000000000e+02
2.024000000000000000e+03,5.758000000000000000e+03,4.910000000000000000e+02
2.024000000000000000e+03,5.763000000000000000e+03,4.910000000000000000e+02
2.024000000000000000e+03,5.763000000000000000e+03,4.910000000000000000e+02
2.024000000000000000e+03,5.763000000000000000e+03,4.910000000000000000e+02
2.026000000000000000e+03,5.763000000000000000e+03,5.130000000000000000e+02
2.026000000000000000e+03,5.782000000000000000e+03,5.130000000000000000e+02
2.026000000000000000e+03,5.782000000000000000e+03,5.130000000000000000e+02
2.026000000000000000e+03,5.782000000000000000e+03,5.130000000000000000e+02
2.029000000000000000e+03,5.782000000000000000e+03,6.210000000000000000e+02
2.029000000000000000e+03,5.781000000000000000e+03,6.210000000000000000e+02
2.029000000000000000e+03,5.781000000000000000e+03,6.210000000000000000e+02
2.029000000000000000e+03,5.781000000000000000e+03,6.210000000000000000e+02
2.029000000000000000e+03,5.781000000000000000e+03,6.110000000000000000e+02
2.029000000000000000e+03,5.784000000000000000e+03,6.110000000000000000e+02
2.029000000000000000e+03,5.784000000000000000e+03,6.110000000000000000e+02
2.029000000000000000e+03,5.784000000000000000e+03,6.110000000000000000e+02
2.013000000000000000e+03,5.784000000000000000e+03,4.430000000000000000e+02
2.013000000000000000e+03,5.781000000000000000e+03,4.430000000000000000e+02
2.013000000000000000e+03,5.781000000000000000e+03,4.430000000000000000e+02
2.013000000000000000e+03,5.781000000000000000e+03,4.430000000000000000e+02
2.007000000000000000e+03,5.781000000000000000e+03,5.880000000000000000e+02
2.007000000000000000e+03,5.780000000000000000e+03,5.880000000000000000e+02
2.007000000000000000e+03,5.780000000000000000e+03,5.880000000000000000e+02
2.007000000000000000e+03,5.780000000000000000e+03,5.880000000000000000e+02
2.025000000000000000e+03,5.780000000000000000e+03,5.630000000000000000e+02
2.025000000000000000e+03,5.789000000000000000e+03,5.630000000000000000e+02
2.025000000000000000e+03,5.789000000000000000e+03,5.630000000000000000e+02
2.025000000000000000e+03,5.789000000000000000e+03,5.630000000000000000e+02
2.037000000000000000e+03,5.789000000000000000e+03,7.000000000000000000e+02
2.037000000000000000e+03,5.797000000000000000e+03,7.000000000000000000e+02
2.037000000000000000e+03,5.797000000000000000e+03,7.000000000000000000e+02
2.037000000000000000e+03,5.797000000000000000e+03,7.000000000000000000e+02
2.011000000000000000e+03,5.797000000000000000e+03,7.000000000000000000e+02
2.011000000000000000e+03,5.799000000000000000e+03,7.000000000000000000e+02
2.011000000000000000e+03,5.799000000000000000e+03,7.000000000000000000e+02
2.011000000000000000e+03,5.799000000000000000e+03,7.000000000000000000e+02
2.016000000000000000e+03,5.799000000000000000e+03,7.280000000000000000e+02
2.016000000000000000e+03,5.795000000000000000e+03,7.280000000000000000e+02
2.016000000000000000e+03,5.795000000000000000e+03,7.280000000000000000e+02
2.016000000000000000e+03,5.795000000000000000e+03,7.280000000000000000e+02
2.012000000000000000e+03,5.795000000000000000e+03,5.190000000000000000e+02
2.012000000000000000e+03,5.767000000000000000e+03,5.190000000000000000e+02
2.012000000000000000e+03,5.767000000000000000e+03,5.190000000000000000e+02
2.012000000000000000e+03,5.767000000000000000e+03,5.190000000000000000e+02
2.006000000000000000e+03,5.767000000000000000e+03,4.270000000000000000e+02
2.006000000000000000e+03,5.766000000000000000e+03,4.270000000000000000e+02
2.006000000000000000e+03,5.766000000000000000e+03,4.270000000000000000e+02
2.006000000000000000e+03,5.766000000000000000e+03,4.270000000000000000e+02
2.008000000000000000e+03,5.766000000000000000e+03,4.480000000000000000e+02
2.008000000000000000e+03,5.765000000000000000e+03,4.480000000000000000e+02
2.008000000000000000e+03,5.765000000000000000e+03,4.480000000000000000e+02
2.008000000000000000e+03,5.765000000000000000e+03,4.480000000000000000e+02
2.018000000000000000e+03,5.765000000000000000e+03,2.150000000000000000e+02
2.018000000000000000e+03,5.787000000000000000e+03,2.150000000000000000e+02
2.018000000000000000e+03,5.787000000000000000e+03,2.150000000000000000e+02
2.018000000000000000e+03,5.787000000000000000e+03,2.150000000000000000e+02
2.011000000000000000e+03,5.787000000000000000e+03,3.690000000000000000e+02
2.011000000000000000e+03,5.792000000000000000e+03,3.690000000000000000e+02
2.011000000000000000e+03,5.792000000000000000e+03,3.690000000000000000e+02
2.011000000000000000e+03,5.792000000000000000e+03,3.690000000000000000e+02
2.000000000000000000e+03,5.792000000000000000e+03,2.200000000000000000e+02
2.000000000000000000e+03,5.809000000000000000e+03,2.200000000000000000e+02
2.000000000000000000e+03,5.809000000000000000e+03,2.200000000000000000e+02
2.000000000000000000e+03,5.809000000000000000e+03,2.200000000000000000e+02
1.993000000000000000e+03,5.809000000000000000e+03,1.490000000000000000e+02
1.993000000000000000e+03,5.795000000000000000e+03,1.490000000000000000e+02
1.993000000000000000e+03,5.795000000000000000e+03,1.490000000000000000e+02
1.993000000000000000e+03,5.795000000000000000e+03,1.490000000000000000e+02
1.995000000000000000e+03,5.795000000000000000e+03,2.940000000000000000e+02
1.995000000000000000e+03,5.783000000000000000e+03,2.940000000000000000e+02
1.995000000000000000e+03,5.783000000000000000e+03,2.940000000000000000e+02
1.995000000000000000e+03,5.783000000000000000e+03,2.940000000000000000e+02
1.995000000000000000e+03,5.783000000000000000e+03,3.080000000000000000e+02
1.995000000000000000e+03,5.809000000000000000e+03,3.080000000000000000e+02
1.995000000000000000e+03,5.809000000000000000e+03,3.080000000000000000e+02
1.995000000000000000e+03,5.809000000000000000e+03,3.080000000000000000e+02
2.009000000000000000e+03,5.809000000000000000e+03,2.670000000000000000e+02
2.009000000000000000e+03,5.823000000000000000e+03,2.670000000000000000e+02
2.009000000000000000e+03,5.823000000000000000e+03,2.670000000000000000e+02
2.009000000000000000e+03,5.823000000000000000e+03,2.670000000000000000e+02
2.015000000000000000e+03,5.823000000000000000e+03,1.970000000000000000e+02
2.015000000000000000e+03,5.829000000000000000e+03,1.970000000000000000e+02
2.015000000000000000e+03,5.829000000000000000e+03,1.970000000000000000e+02
2.015000000000000000e+03,5.829000000000000000e+03,1.970000000000000000e+02
2.012000000000000000e+03,5.829000000000000000e+03,2.110000000000000000e+02
2.012000000000000000e+03,5.838000000000000000e+03,2.110000000000000000e+02
2.012000000000000000e+03,5.838000000000000000e+03,2.110000000000000000e+02
2.012000000000000000e+03,5.838000000000000000e+03,2.110000000000000000e+02
2.018000000000000000e+03,5.838000000000000000e+03,4.680000000000000000e+02
2.018000000000000000e+03,5.842000000000000000e+03,4.680000000000000000e+02
2.018000000000000000e+03,5.842000000000000000e+03,4.680000000000000000e+02
2.018000000000000000e+03,5.842000000000000000e+03,4.680000000000000000e+02
2.026000000000000000e+03,5.842000000000000000e+03,5.210000000000000000e+02
2.026000000000000000e+03,5.862000000000000000e+03,5.210000000000000000e+02
2.026000000000000000e+03,5.862000000000000000e+03,5.210000000000000000e+02
2.026000000000000000e+03,5.862000000000000000e+03,5.210000000000000000e+02
2.040000000000000000e+03,5.862000000000000000e+03,3.210000000000000000e+02
2.040000000000000000e+03,5.858000000000000000e+03,3.210000000000000000e+02
2.040000000000000000e+03,5.858000000000000000e+03,3.210000000000000000e+02
2.040000000000000000e+03,5.858000000000000000e+03,3.210000000000000000e+02
2.048000000000000000e+03,5.858000000000000000e+03,4.220000000000000000e+02
2.048000000000000000e+03,5.883000000000000000e+03,4.220000000000000000e+02
2.048000000000000000e+03,5.883000000000000000e+03,4.220000000000000000e+02
2.048000000000000000e+03,5.883000000000000000e+03,4.220000000000000000e+02
2.049000000000000000e+03,5.883000000000000000e+03,4.890000000000000000e+02
2.049000000000000000e+03,5.895000000000000000e+03,4.890000000000000000e+02
2.049000000000000000e+03,5.895000000000000000e+03,4.890000000000000000e+02
2.049000000000000000e+03,5.895000000000000000e+03,4.890000000000000000e+02
2.057000000000000000e+03,5.895000000000000000e+03,6.230000000000000000e+02
2.057000000000000000e+03,5.897000000000000000e+03,6.230000000000000000e+02
2.057000000000000000e+03,5.897000000000000000e+03,6.230000000000000000e+02
2.057000000000000000e+03,5.897000000000000000e+03,6.230000000000000000e+02
2.065000000000000000e+03,5.897000000000000000e+03,1.071000000000000000e+03
2.065000000000000000e+03,5.915000000000000000e+03,1.071000000000000000e+03
2.065000000000000000e+03,5.915000000000000000e+03,1.071000000000000000e+03
2.065000000000000000e+03,5.915000000000000000e+03,1.071000000000000000e+03
2.070000000000000000e+03,5.915000000000000000e+03,1.100000000000000000e+02
2.070000000000000000e+03,5.936000000000000000e+03,1.100000000000000000e+02
2.070000000000000000e+03,5.936000000000000000e+03,1.100000000000000000e+02
2.070000000000000000e+03,5.936000000000000000e+03,1.100000000000000000e+02
2.088000000000000000e+03,5.936000000000000000e+03,4.100000000000000000e+02
2.088000000000000000e+03,5.962000000000000000e+03,4.100000000000000000e+02
2.088000000000000000e+03,5.962000000000000000e+03,4.100000000000000000e+02
2.088000000000000000e+03,5.962000000000000000e+03,4.100000000000000000e+02
2.111000000000000000e+03,5.962000000000000000e+03,5.370000000000000000e+02
2.111000000000000000e+03,5.964000000000000000e+03,5.370000000000000000e+02
2.111000000000000000e+03,5.964000000000000000e+03,5.370000000000000000e+02
2.111000000000000000e+03,5.964000000000000000e+03,5.370000000000000000e+02
2.113000000000000000e+03,5.964000000000000000e+03,7.010000000000000000e+02
2.113000000000000000e+03,5.987000000000000000e+03,7.010000000000000000e+02
2.113000000000000000e+03,5.987000000000000000e+03,7.010000000000000000e+02
2.113000000000000000e+03,5.987000000000000000e+03,7.010000000000000000e+02
2.113000000000000000e+03,5.987000000000000000e+03,7.980000000000000000e+02
2.113000000000000000e+03,6.016000000000000000e+03,7.980000000000000000e+02
2.113000000000000000e+03,6.016000000000000000e+03,7.980000000000000000e+02
2.113000000000000000e+03,6.016000000000000000e+03,7.980000000000000000e+02
2.130000000000000000e+03,6.016000000000000000e+03,8.340000000000000000e+02
2.130000000000000000e+03,6.015000000000000000e+03,8.340000000000000000e+02
2.130000000000000000e+03,6.015000000000000000e+03,8.340000000000000000e+02
2.130000000000000000e+03,6.015000000000000000e+03,8.340000000000000000e+02
2.121000000000000000e+03,6.015000000000000000e+03,8.310000000000000000e+02
2.121000000000000000e+03,6.011000000000000000e+03,8.310000000000000000e+02
2.121000000000000000e+03,6.011000000000000000e+03,8.310000000000000000e+02
2.121000000000000000e+03,6.011000000000000000e+03,8.310000000000000000e+02
2.111000000000000000e+03,6.011000000000000000e+03,6.450000000000000000e+02
2.111000000000000000e+03,6.014000000000000000e+03,6.450000000000000000e+02
2.111000000000000000e+03,6.014000000000000000e+03,6.450000000000000000e+02
2.111000000000000000e+03,6.014000000000000000e+03,6.450000000000000000e+02
2.114000000000000000e+03,6.014000000000000000e+03,7.940000000000000000e+02
2.114000000000000000e+03,6.023000000000000000e+03,7.940000000000000000e+02
2.114000000000000000e+03,6.023000000000000000e+03,7.940000000000000000e+02
2.114000000000000000e+03,6.023000000000000000e+03,7.940000000000000000e+02
2.133000000000000000e+03,6.023000000000000000e+03,7.630000000000000000e+02
2.133000000000000000e+03,6.035000000000000000e+03,7.630000000000000000e+02
2.133000000000000000e+03,6.035000000000000000e+03,7.630000000000000000e+02
2.133000000000000000e+03,6.035000000000000000e+03,7.630000000000000000e+02
2.136000000000000000e+03,6.035000000000000000e+03,6.620000000000000000e+02
2.136000000000000000e+03,6.049000000000000000e+03,6.620000000000000000e+02
2.136000000000000000e+03,6.049000000000000000e+03,6.620000000000000000e+02
2.136000000000000000e+03,6.049000000000000000e+03,6.620000000000000000e+02
2.140000000000000000e+03,6.049000000000000000e+03,6.200000000000000000e+02
2.140000000000000000e+03,6.057000000000000000e+03,6.200000000000000000e+02
2.140000000000000000e+03,6.057000000000000000e+03,6.200000000000000000e+02
2.140000000000000000e+03,6.057000000000000000e+03,6.200000000000000000e+02
2.126000000000000000e+03,6.057000000000000000e+03,4.780000000000000000e+02
2.126000000000000000e+03,6.036000000000000000e+03,4.780000000000000000e+02
2.126000000000000000e+03,6.036000000000000000e+03,4.780000000000000000e+02
2.126000000000000000e+03,6.036000000000000000e+03,4.780000000000000000e+02
2.100000000000000000e+03,6.036000000000000000e+03,5.970000000000000000e+02
2.100000000000000000e+03,6.006000000000000000e+03,5.970000000000000000e+02
2.100000000000000000e+03,6.006000000000000000e+03,5.970000000000000000e+02
2.100000000000000000e+03,6.006000000000000000e+03,5.970000000000000000e+02
2.087000000000000000e+03,6.006000000000000000e+03,2.840000000000000000e+02
2.087000000000000000e+03,5.973000000000000000e+03,2.840000000000000000e+02
2.087000000000000000e+03,5.973000000000000000e+03,2.840000000000000000e+02
2.087000000000000000e+03,5.973000000000000000e+03,2.840000000000000000e+02
2.068000000000000000e+03,5.973000000000000000e+03,3.280000000000000000e+02
2.068000000000000000e+03,5.972000000000000000e+03,3.280000000000000000e+02
2.068000000000000000e+03,5.972000000000000000e+03,3.280000000000000000e+02
2.068000000000000000e+03,5.972000000000000000e+03,3.280000000000000000e+02
2.069000000000000000e+03,5.972000000000000000e+03,2.790000000000000000e+02
2.069000000000000000e+03,5.976000000000000000e+03,2.790000000000000000e+02
2.069000000000000000e+03,5.976000000000000000e+03,2.790000000000000000e+02
2.069000000000000000e+03,5.976000000000000000e+03,2.790000000000000000e+02
2.077000000000000000e+03,5.976000000000000000e+03,3.550000000000000000e+02
2.077000000000000000e+03,5.976000000000000000e+03,3.550000000000000000e+02
2.077000000000000000e+03,5.976000000000000000e+03,3.550000000000000000e+02
2.077000000000000000e+03,5.976000000000000000e+03,3.550000000000000000e+02
2.087000000000000000e+03,5.976000000000000000e+03,3.810000000000000000e+02
2.087000000000000000e+03,6.015000000000000000e+03,3.810000000000000000e+02
2.087000000000000000e+03,6.015000000000000000e+03,3.810000000000000000e+02
2.087000000000000000e+03,6.015000000000000000e+03,3.810000000000000000e+02
2.096000000000000000e+03,6.015000000000000000e+03,3.930000000000000000e+02
2.096000000000000000e+03,6.024000000000000000e+03,3.930000000000000000e+02
2.096000000000000000e+03,6.024000000000000000e+03,3.930000000000000000e+02
2.096000000000000000e+03,6.024000000000000000e+03,3.930000000000000000e+02
2.087000000000000000e+03,6.024000000000000000e+03,2.880000000000000000e+02
2.087000000000000000e+03,6.035000000000000000e+03,2.880000000000000000e+02
2.087000000000000000e+03,6.035000000000000000e+03,2.880000000000000000e+02
2.087000000000000000e+03,6.035000000000000000e+03,2.880000000000000000e+02
2.099000000000000000e+03,6.035000000000000000e+03,4.310000000000000000e+02
2.099000000000000000e+03,6.039000000000000000e+03,4.310000000000000000e+02
2.099000000000000000e+03,6.039000000000000000e+03,4.310000000000000000e+02
2.099000000000000000e+03,6.039000000000000000e+03,4.310000000000000000e+02
2.095000000000000000e+03,6.039000000000000000e+03,4.820000000000000000e+02
2.095000000000000000e+03,6.048000000000000000e+03,4.820000000000000000e+02
2.095000000000000000e+03,6.048000000000000000e+03,4.820000000000000000e+02
2.095000000000000000e+03,6.048000000000000000e+03,4.820000000000000000e+02
2.094000000000000000e+03,6.048000000000000000e+03,5.960000000000000000e+02
2.094000000000000000e+03,6.043000000000000000e+03,5.960000000000000000e+02
2.094000000000000000e+03,6.043000000000000000e+03,5.960000000000000000e+02
2.094000000000000000e+03,6.043000000000000000e+03,5.960000000000000000e+02
2.095000000000000000e+03,6.043000000000000000e+03,5.190000000000000000e+02
2.095000000000000000e+03,6.046000000000000000e+03,5.190000000000000000e+02
2.095000000000000000e+03,6.046000000000000000e+03,5.190000000000000000e+02
2.095000000000000000e+03,6.046000000000000000e+03,5.190000000000000000e+02
2.088000000000000000e+03,6.046000000000000000e+03,5.200000000000000000e+02
2.088000000000000000e+03,6.052000000000000000e+03,5.200000000000000000e+02
2.088000000000000000e+03,6.052000000000000000e+03,5.200000000000000000e+02
2.088000000000000000e+03,6.052000000000000000e+03,5.200000000000000000e+02
2.081000000000000000e+03,6.052000000000000000e+03,3.940000000000000000e+02
2.081000000000000000e+03,6.051000000000000000e+03,3.940000000000000000e+02
2.081000000000000000e+03,6.051000000000000000e+03,3.940000000000000000e+02
2.081000000000000000e+03,6.051000000000000000e+03,3.940000000000000000e+02
2.093000000000000000e+03,6.051000000000000000e+03,5.490000000000000000e+02
2.093000000000000000e+03,6.058000000000000000e+03,5.490000000000000000e+02
2.093000000000000000e+03,6.058000000000000000e+03,5.490000000000000000e+02
2.093000000000000000e+03,6.058000000000000000e+03,5.490000000000000000e+02
2.106000000000000000e+03,6.058000000000000000e+03,4.970000000000000000e+02
2.106000000000000000e+03,6.076000000000000000e+03,4.970000000000000000e+02
2.106000000000000000e+03,6.076000000000000000e+03,4.970000000000000000e+02
2.106000000000000000e+03,6.076000000000000000e+03,4.970000000000000000e+02
2.121000000000000000e+03,6.076000000000000000e+03,4.750000000000000000e+02
2.121000000000000000e+03,6.098000000000000000e+03,4.750000000000000000e+02
2.121000000000000000e+03,6.098000000000000000e+03,4.750000000000000000e+02
2.121000000000000000e+03,6.098000000000000000e+03,4.750000000000000000e+02
2.119000000000000000e+03,6.098000000000000000e+03,5.750000000000000000e+02
2.119000000000000000e+03,6.117000000000000000e+03,5.750000000000000000e+02
2.119000000000000000e+03,6.117000000000000000e+03,5.750000000000000000e+02
2.119000000000000000e+03,6.117000000000000000e+03,5.750000000000000000e+02
2.147000000000000000e+03,6.117000000000000000e+03,1.290000000000000000e+02
2.147000000000000000e+03,6.141000000000000000e+03,1.290000000000000000e+02
2.147000000000000000e+03,6.141000000000000000e+03,1.290000000000000000e+02
2.147000000000000000e+03,6.141000000000000000e+03,1.290000000000000000e+02
2.161000000000000000e+03,6.141000000000000000e+03,5.270000000000000000e+02
2.161000000000000000e+03,6.148000000000000000e+03,5.270000000000000000e+02
2.161000000000000000e+03,6.148000000000000000e+03,5.270000000000000000e+02
2.161000000000000000e+03,6.148000000000000000e+03,5.270000000000000000e+02
2.153000000000000000e+03,6.148000000000000000e+03,6.010000000000000000e+02
2.153000000000000000e+03,6.163000000000000000e+03,6.010000000000000000e+02
2.153000000000000000e+03,6.163000000000000000e+03,6.010000000000000000e+02
2.153000000000000000e+03,6.163000000000000000e+03,6.010000000000000000e+02
2.147000000000000000e+03,6.163000000000000000e+03,5.900000000000000000e+02
2.147000000000000000e+03,6.156000000000000000e+03,5.900000000000000000e+02
2.147000000000000000e+03,6.156000000000000000e+03,5.900000000000000000e+02
2.147000000000000000e+03,6.156000000000000000e+03,5.900000000000000000e+02
2.137000000000000000e+03,6.156000000000000000e+03,5.420000000000000000e+02
2.137000000000000000e+03,6.149000000000000000e+03,5.420000000000000000e+02
2.137000000000000000e+03,6.149000000000000000e+03,5.420000000000000000e+02
2.137000000000000000e+03,6.149000000000000000e+03,5.420000000000000000e+02
2.128000000000000000e+03,6.149000000000000000e+03,5.090000000000000000e+02
2.128000000000000000e+03,6.150000000000000000e+03,5.090000000000000000e+02
2.128000000000000000e+03,6.150000000000000000e+03,5.090000000000000000e+02
2.128000000000000000e+03,6.150000000000000000e+03,5.090000000000000000e+02
2.124000000000000000e+03,6.150000000000000000e+03,7.100000000000000000e+02
2.124000000000000000e+03,6.138000000000000000e+03,7.100000000000000000e+02
2.124000000000000000e+03,6.138000000000000000e+03,7.100000000000000000e+02
2.124000000000000000e+03,6.138000000000000000e+03,7.100000000000000000e+02
2.119000000000000000e+03,6.138000000000000000e+03,8.040000000000000000e+02
2.119000000000000000e+03,6.151000000000000000e+03,8.040000000000000000e+02
2.119000000000000000e+03,6.151000000000000000e+03,8.040000000000000000e+02
2.119000000000000000e+03,6.151000000000000000e+03,8.040000000000000000e+02
2.116000000000000000e+03,6.151000000000000000e+03,7.170000000000000000e+02
2.116000000000000000e+03,6.161000000000000000e+03,7.170000000000000000e+02
2.116000000000000000e+03,6.161000000000000000e+03,7.170000000000000000e+02
2.116000000000000000e+03,6.161000000000000000e+03,7.170000000000000000e+02
2.129000000000000000e+03,6.161000000000000000e+03,6.580000000000000000e+02
2.129000000000000000e+03,6.170000000000000000e+03,6.580000000000000000e+02
2.129000000000000000e+03,6.170000000000000000e+03,6.580000000000000000e+02
2.129000000000000000e+03,6.170000000000000000e+03,6.580000000000000000e+02
2.121000000000000000e+03,6.170000000000000000e+03,6.610000000000000000e+02
2.121000000000000000e+03,6.162000000000000000e+03,6.610000000000000000e+02
2.121000000000000000e+03,6.162000000000000000e+03,6.610000000000000000e+02
2.121000000000000000e+03,6.162000000000000000e+03,6.610000000000000000e+02
2.114000000000000000e+03,6.162000000000000000e+03,5.990000000000000000e+02
2.114000000000000000e+03,6.139000000000000000e+03,5.990000000000000000e+02
2.114000000000000000e+03,6.139000000000000000e+03,5.990000000000000000e+02
2.114000000000000000e+03,6.139000000000000000e+03,5.990000000000000000e+02
2.121000000000000000e+03,6.139000000000000000e+03,5.290000000000000000e+02
2.121000000000000000e+03,6.126000000000000000e+03,5.290000000000000000e+02
2.121000000000000000e+03,6.126000000000000000e+03,5.290000000000000000e+02
2.121000000000000000e+03,6.126000000000000000e+03,5.290000000000000000e+02
2.115000000000000000e+03,6.126000000000000000e+03,4.820000000000000000e+02
2.115000000000000000e+03,6.109000000000000000e+03,4.820000000000000000e+02
2.115000000000000000e+03,6.109000000000000000e+03,4.820000000000000000e+02
2.115000000000000000e+03,6.109000000000000000e+03,4.820000000000000000e+02
2.108000000000000000e+03,6.109000000000000000e+03,4.070000000000000000e+02
2.108000000000000000e+03,6.122000000000000000e+03,4.070000000000000000e+02
2.108000000000000000e+03,6.122000000000000000e+03,4.070000000000000000e+02
2.108000000000000000e+03,6.122000000000000000e+03,4.070000000000000000e+02
2.128000000000000000e+03,6.122000000000000000e+03,3.900000000000000000e+02
2.128000000000000000e+03,6.127000000000000000e+03,3.900000000000000000e+02
2.128000000000000000e+03,6.127000000000000000e+03,3.900000000000000000e+02
2.128000000000000000e+03,6.127000000000000000e+03,3.900000000000000000e+02
2.154000000000000000e+03,6.127000000000000000e+03,4.540000000000000000e+02
2.154000000000000000e+03,6.160000000000000000e+03,4.540000000000000000e+02
2.154000000000000000e+03,6.160000000000000000e+03,4.540000000000000000e+02
2.154000000000000000e+03,6.160000000000000000e+03,4.540000000000000000e+02
2.173000000000000000e+03,6.160000000000000000e+03,7.170000000000000000e+02
2.173000000000000000e+03,6.201000000000000000e+03,7.170000000000000000e+02
2.173000000000000000e+03,6.201000000000000000e+03,7.170000000000000000e+02
2.173000000000000000e+03,6.201000000000000000e+03,7.170000000000000000e+02
2.187000000000000000e+03,6.201000000000000000e+03,5.740000000000000000e+02
2.187000000000000000e+03,6.235000000000000000e+03,5.740000000000000000e+02
2.187000000000000000e+03,6.235000000000000000e+03,5.740000000000000000e+02
2.187000000000000000e+03,6.235000000000000000e+03,5.740000000000000000e+02
2.221000000000000000e+03,6.235000000000000000e+03,6.770000000000000000e+02
2.221000000000000000e+03,6.273000000000000000e+03,6.770000000000000000e+02
2.221000000000000000e+03,6.273000000000000000e+03,6.770000000000000000e+02
2.221000000000000000e+03,6.273000000000000000e+03,6.770000000000000000e+02
2.237000000000000000e+03,6.273000000000000000e+03,6.260000000000000000e+02
2.237000000000000000e+03,6.287000000000000000e+03,6.260000000000000000e+02
2.237000000000000000e+03,6.287000000000000000e+03,6.260000000000000000e+02
2.237000000000000000e+03,6.287000000000000000e+03,6.260000000000000000e+02
2.233000000000000000e+03,6.287000000000000000e+03,7.330000000000000000e+02
2.233000000000000000e+03,6.286000000000000000e+03,7.330000000000000000e+02
2.233000000000000000e+03,6.286000000000000000e+03,7.330000000000000000e+02
2.233000000000000000e+03,6.286000000000000000e+03,7.330000000000000000e+02
2.213000000000000000e+03,6.286000000000000000e+03,6.030000000000000000e+02
2.213000000000000000e+03,6.287000000000000000e+03,6.030000000000000000e+02
2.213000000000000000e+03,6.287000000000000000e+03,6.030000000000000000e+02
2.213000000000000000e+03,6.287000000000000000e+03,6.030000000000000000e+02
2.231000000000000000e+03,6.287000000000000000e+03,6.670000000000000000e+02
2.231000000000000000e+03,6.296000000000000000e+03,6.670000000000000000e+02
2.231000000000000000e+03,6.296000000000000000e+03,6.670000000000000000e+02
2.231000000000000000e+03,6.296000000000000000e+03,6.670000000000000000e+02
2.242000000000000000e+03,6.296000000000000000e+03,6.920000000000000000e+02
2.242000000000000000e+03,6.302000000000000000e+03,6.920000000000000000e+02
2.242000000000000000e+03,6.302000000000000000e+03,6.920000000000000000e+02
2.242000000000000000e+03,6.302000000000000000e+03,6.920000000000000000e+02
2.269000000000000000e+03,6.302000000000000000e+03,4.710000000000000000e+02
2.269000000000000000e+03,6.331000000000000000e+03,4.710000000000000000e+02
2.269000000000000000e+03,6.331000000000000000e+03,4.710000000000000000e+02
2.269000000000000000e+03,6.331000000000000000e+03,4.710000000000000000e+02
2.269000000000000000e+03,6.331000000000000000e+03,6.120000000000000000e+02
2.269000000000000000e+03,6.346000000000000000e+03,6.120000000000000000e+02
2.269000000000000000e+03,6.346000000000000000e+03,6.120000000000000000e+02
2.269000000000000000e+03,6.346000000000000000e+03,6.120000000000000000e+02
2.259000000000000000e+03,6.346000000000000000e+03,4.880000000000000000e+02
2.259000000000000000e+03,6.343000000000000000e+03,4.880000000000000000e+02
2.259000000000000000e+03,6.343000000000000000e+03,4.880000000000000000e+02
2.259000000000000000e+03,6.343000000000000000e+03,4.880000000000000000e+02
2.267000000000000000e+03,6.343000000000000000e+03,7.290000000000000000e+02
2.267000000000000000e+03,6.358000000000000000e+03,7.290000000000000000e+02
2.267000000000000000e+03,6.358000000000000000e+03,7.290000000000000000e+02
2.267000000000000000e+03,6.358000000000000000e+03,7.290000000000000000e+02
2.266000000000000000e+03,6.358000000000000000e+03,1.850000000000000000e+02
2.266000000000000000e+03,6.355000000000000000e+03,1.850000000000000000e+02
2.266000000000000000e+03,6.355000000000000000e+03,1.850000000000000000e+02
2.266000000000000000e+03,6.355000000000000000e+03,1.850000000000000000e+02
2.248000000000000000e+03,6.355000000000000000e+03,4.740000000000000000e+02
2.248000000000000000e+03,6.341000000000000000e+03,4.740000000000000000e+02
2.248000000000000000e+03,6.341000000000000000e+03,4.740000000000000000e+02
2.248000000000000000e+03,6.341000000000000000e+03,4.740000000000000000e+02
2.274000000000000000e+03,6.341000000000000000e+03,6.870000000000000000e+02
2.274000000000000000e+03,6.339000000000000000e+03,6.870000000000000000e+02
2.274000000000000000e+03,6.339000000000000000e+03,6.870000000000000000e+02
2.274000000000000000e+03,6.339000000000000000e+03,6.870000000000000000e+02
2.267000000000000000e+03,6.339000000000000000e+03,6.680000000000000000e+02
2.267000000000000000e+03,6.366000000000000000e+03,6.680000000000000000e+02
2.267000000000000000e+03,6.366000000000000000e+03,6.680000000000000000e+02
2.267000000000000000e+03,6.366000000000000000e+03,6.680000000000000000e+02
2.268000000000000000e+03,6.366000000000000000e+03,7.150000000000000000e+02
2.268000000000000000e+03,6.369000000000000000e+03,7.150000000000000000e+02
2.268000000000000000e+03,6.369000000000000000e+03,7.150000000000000000e+02
2.268000000000000000e+03,6.369000000000000000e+03,7.150000000000000000e+02
2.277000000000000000e+03,6.369000000000000000e+03,8.070000000000000000e+02
2.277000000000000000e+03,6.387000000000000000e+03,8.070000000000000000e+02
2.277000000000000000e+03,6.387000000000000000e+03,8.070000000000000000e+02
2.277000000000000000e+03,6.387000000000000000e+03,8.070000000000000000e+02
2.273000000000000000e+03,6.387000000000000000e+03,8.870000000000000000e+02
2.273000000000000000e+03,6.381000000000000000e+03,8.870000000000000000e+02
2.273000000000000000e+03,6.381000000000000000e+03,8.870000000000000000e+02
2.273000000000000000e+03,6.381000000000000000e+03,8.870000000000000000e+02
2.284000000000000000e+03,6.381000000000000000e+03,7.740000000000000000e+02
2.284000000000000000e+03,6.388000000000000000e+03,7.740000000000000000e+02
2.284000000000000000e+03,6.388000000000000000e+03,7.740000000000000000e+02
2.284000000000000000e+03,6.388000000000000000e+03,7.740000000000000000e+02
2.286000000000000000e+03,6.388000000000000000e+03,8.580000000000000000e+02
2.286000000000000000e+03,6.413000000000000000e+03,8.580000000000000000e+02
2.286000000000000000e+03,6.413000000000000000e+03,8.580000000000000000e+02
2.286000000000000000e+03,6.413000000000000000e+03,8.580000000000000000e+02
2.282000000000000000e+03,6.413000000000000000e+03,6.830000000000000000e+02
2.282000000000000000e+03,6.419000000000000000e+03,6.830000000000000000e+02
2.282000000000000000e+03,6.419000000000000000e+03,6.830000000000000000e+02
2.282000000000000000e+03,6.419000000000000000e+03,6.830000000000000000e+02
2.298000000000000000e+03,6.419000000000000000e+03,6.900000000000000000e+02
2.298000000000000000e+03,6.435000000000000000e+03,6.900000000000000000e+02
2.298000000000000000e+03,6.435000000000000000e+03,6.900000000000000000e+02
2.298000000000000000e+03,6.435000000000000000e+03,6.900000000000000000e+02
2.329000000000000000e+03,6.435000000000000000e+03,9.420000000000000000e+02
2.329000000000000000e+03,6.453000000000000000e+03,9.420000000000000000e+02
2.329000000000000000e+03,6.453000000000000000e+03,9.420000000000000000e+02
2.329000000000000000e+03,6.453000000000000000e+03,9.420000000000000000e+02
2.346000000000000000e+03,6.453000000000000000e+03,1.014000000000000000e+03
2.346000000000000000e+03,6.473000000000000000e+03,1.014000000000000000e+03
2.346000000000000000e+03,6.473000000000000000e+03,1.014000000000000000e+03
2.346000000000000000e+03,6.473000000000000000e+03,1.014000000000000000e+03
2.354000000000000000e+03,6.473000000000000000e+03,9.780000000000000000e+02
2.354000000000000000e+03,6.493000000000000000e+03,9.780000000000000000e+02
2.354000000000000000e+03,6.493000000000000000e+03,9.780000000000000000e+02
2.354000000000000000e+03,6.493000000000000000e+03,9.780000000000000000e+02
2.366000000000000000e+03,6.493000000000000000e+03,9.370000000000000000e+02
2.366000000000000000e+03,6.491000000000000000e+03,9.370000000000000000e+02
2.366000000000000000e+03,6.491000000000000000e+03,9.370000000000000000e+02
2.366000000000000000e+03,6.491000000000000000e+03,9.370000000000000000e+02
2.368000000000000000e+03,6.491000000000000000e+03,7.960000000000000000e+02
2.368000000000000000e+03,6.499000000000000000e+03,7.960000000000000000e+02
2.368000000000000000e+03,6.499000000000000000e+03,7.960000000000000000e+02
2.368000000000000000e+03,6.499000000000000000e+03,7.960000000000000000e+02
2.370000000000000000e+03,6.499000000000000000e+03,9.160000000000000000e+02
2.370000000000000000e+03,6.501000000000000000e+03,9.160000000000000000e+02
2.370000000000000000e+03,6.501000000000000000e+03,9.160000000000000000e+02
2.370000000000000000e+03,6.501000000000000000e+03,9.160000000000000000e+02
2.403000000000000000e+03,6.501000000000000000e+03,8.830000000000000000e+02
2.403000000000000000e+03,6.553000000000000000e+03,8.830000000000000000e+02
2.403000000000000000e+03,6.553000000000000000e+03,8.830000000000000000e+02
2.403000000000000000e+03,6.553000000000000000e+03,8.830000000000000000e+02
2.428000000000000000e+03,6.553000000000000000e+03,7.530000000000000000e+02
2.428000000000000000e+03,6.578000000000000000e+03,7.530000000000000000e+02
2.428000000000000000e+03,6.578000000000000000e+03,7.530000000000000000e+02
2.428000000000000000e+03,6.578000000000000000e+03,7.530000000000000000e+02
2.438000000000000000e+03,6.578000000000000000e+03,6.590000000000000000e+02
2.438000000000000000e+03,6.604000000000000000e+03,6.590000000000000000e+02
2.438000000000000000e+03,6.604000000000000000e+03,6.590000000000000000e+02
2.438000000000000000e+03,6.604000000000000000e+03,6.590000000000000000e+02
2.442000000000000000e+03,6.604000000000000000e+03,4.070000000000000000e+02
2.442000000000000000e+03,6.605000000000000000e+03,4.070000000000000000e+02
2.442000000000000000e+03,6.605000000000000000e+03,4.070000000000000000e+02
2.442000000000000000e+03,6.605000000000000000e+03,4.070000000000000000e+02
2.448000000000000000e+03,6.605000000000000000e+03,4.820000000000000000e+02
2.448000000000000000e+03,6.642000000000000000e+03,4.820000000000000000e+02
2.448000000000000000e+03,6.642000000000000000e+03,4.820000000000000000e+02
2.448000000000000000e+03,6.642000000000000000e+03,4.820000000000000000e+02
2.457000000000000000e+03,6.642000000000000000e+03,3.590000000000000000e+02
2.457000000000000000e+03,6.647000000000000000e+03,3.590000000000000000e+02
2.457000000000000000e+03,6.647000000000000000e+03,3.590000000000000000e+02
2.457000000000000000e+03,6.647000000000000000e+03,3.590000000000000000e+02
2.460000000000000000e+03,6.647000000000000000e+03,2.420000000000000000e+02
2.460000000000000000e+03,6.645000000000000000e+03,2.420000000000000000e+02
2.460000000000000000e+03,6.645000000000000000e+03,2.420000000000000000e+02
2.460000000000000000e+03,6.645000000000000000e+03,2.420000000000000000e+02
2.458000000000000000e+03,6.645000000000000000e+03,1.870000000000000000e+02
2.458000000000000000e+03,6.668000000000000000e+03,1.870000000000000000e+02
2.458000000000000000e+03,6.668000000000000000e+03,1.870000000000000000e+02
2.458000000000000000e+03,6.668000000000000000e+03,1.870000000000000000e+02
2.473000000000000000e+03,6.668000000000000000e+03,1.020000000000000000e+02
2.473000000000000000e+03,6.683000000000000000e+03,1.020000000000000000e+02
2.473000000000000000e+03,6.683000000000000000e+03,1.020000000000000000e+02
2.473000000000000000e+03,6.683000000000000000e+03,1.020000000000000000e+02
2.492000000000000000e+03,6.683000000000000000e+03,1.680000000000000000e+02
2.492000000000000000e+03,6.686000000000000000e+03,1.680000000000000000e+02
2.492000000000000000e+03,6.686000000000000000e+03,1.680000000000000000e+02
2.492000000000000000e+03,6.686000000000000000e+03,1.680000000000000000e+02
2.480000000000000000e+03,6.686000000000000000e+03,-3.900000000000000000e+01
2.480000000000000000e+03,6.700000000000000000e+03,-3.900000000000000000e+01
2.480000000000000000e+03,6.700000000000000000e+03,-3.900000000000000000e+01
2.480000000000000000e+03,6.700000000000000000e+03,-3.900000000000000000e+01
2.470000000000000000e+03,6.700000000000000000e+03,-1.190000000000000000e+02
2.470000000000000000e+03,6.706000000000000000e+03,-1.190000000000000000e+02
2.470000000000000000e+03,6.706000000000000000e+03,-1.190000000000000000e+02
2.470000000000000000e+03,6.706000000000000000e+03,-1.190000000000000000e+02
2.473000000000000000e+03,6.706000000000000000e+03,2.550000000000000000e+02
2.473000000000000000e+03,6.699000000000000000e+03,2.550000000000000000e+02
2.473000000000000000e+03,6.699000000000000000e+03,2.550000000000000000e+02
2.473000000000000000e+03,6.699000000000000000e+03,2.550000000000000000e+02
2.479000000000000000e+03,6.699000000000000000e+03,-5.020000000000000000e+02
2.479000000000000000e+03,6.716000000000000000e+03,-5.020000000000000000e+02
2.479000000000000000e+03,6.716000000000000000e+03,-5.020000000000000000e+02
2.479000000000000000e+03,6.716000000000000000e+03,-5.020000000000000000e+02
2.471000000000000000e+03,6.716000000000000000e+03,3.800000000000000000e+01
2.471000000000000000e+03,6.703000000000000000e+03,3.800000000000000000e+01
2.471000000000000000e+03,6.703000000000000000e+03,3.800000000000000000e+01
2.471000000000000000e+03,6.703000000000000000e+03,3.800000000000000000e+01
2.478000000000000000e+03,6.703000000000000000e+03,1.690000000000000000e+02
2.478000000000000000e+03,6.712000000000000000e+03,1.690000000000000000e+02
2.478000000000000000e+03,6.712000000000000000e+03,1.690000000000000000e+02
2.478000000000000000e+03,6.712000000000000000e+03,1.690000000000000000e+02
2.479000000000000000e+03,6.712000000000000000e+03,5.400000000000000000e+01
2.479000000000000000e+03,6.723000000000000000e+03,5.400000000000000000e+01
2.479000000000000000e+03,6.723000000000000000e+03,5.400000000000000000e+01
2.479000000000000000e+03,6.723000000000000000e+03,5.400000000000000000e+01
2.482000000000000000e+03,6.723000000000000000e+03,-1.000000000000000000e+00
2.482000000000000000e+03,6.721000000000000000e+03,-1.000000000000000000e+00
2.482000000000000000e+03,6.721000000000000000e+03,-1.000000000000000000e+00
2.482000000000000000e+03,6.721000000000000000e+03,-1.000000000000000000e+00
2.474000000000000000e+03,6.721000000000000000e+03,3.200000000000000000e+01
2.474000000000000000e+03,6.729000000000000000e+03,3.200000000000000000e+01
2.474000000000000000e+03,6.729000000000000000e+03,3.200000000000000000e+01
2.474000000000000000e+03,6.729000000000000000e+03,3.200000000000000000e+01
2.476000000000000000e+03,6.729000000000000000e+03,3.140000000000000000e+02
2.476000000000000000e+03,6.724000000000000000e+03,3.140000000000000000e+02
2.476000000000000000e+03,6.724000000000000000e+03,3.140000000000000000e+02
2.476000000000000000e+03,6.724000000000000000e+03,3.140000000000000000e+02
2.466000000000000000e+03,6.724000000000000000e+03,2.220000000000000000e+02
2.466000000000000000e+03,6.711000000000000000e+03,2.220000000000000000e+02
2.466000000000000000e+03,6.711000000000000000e+03,2.220000000000000000e+02
2.466000000000000000e+03,6.711000000000000000e+03,2.220000000000000000e+02
2.466000000000000000e+03,6.711000000000000000e+03,9.000000000000000000e+01
2.466000000000000000e+03,6.716000000000000000e+03,9.000000000000000000e+01
2.466000000000000000e+03,6.716000000000000000e+03,9.000000000000000000e+01
2.466000000000000000e+03,6.716000000000000000e+03,9.000000000000000000e+01
2.470000000000000000e+03,6.716000000000000000e+03,5.900000000000000000e+01
2.470000000000000000e+03,6.727000000000000000e+03,5.900000000000000000e+01
2.470000000000000000e+03,6.727000000000000000e+03,5.900000000000000000e+01
2.470000000000000000e+03,6.727000000000000000e+03,5.900000000000000000e+01
2.466000000000000000e+03,6.727000000000000000e+03,1.290000000000000000e+02
2.466000000000000000e+03,6.724000000000000000e+03,1.290000000000000000e+02
2.466000000000000000e+03,6.724000000000000000e+03,1.290000000000000000e+02
2.466000000000000000e+03,6.724000000000000000e+03,1.290000000000000000e+02
2.439000000000000000e+03,6.724000000000000000e+03,7.900000000000000000e+01
2.439000000000000000e+03,6.702000000000000000e+03,7.900000000000000000e+01
2.439000000000000000e+03,6.702000000000000000e+03,7.900000000000000000e+01
2.439000000000000000e+03,6.702000000000000000e+03,7.900000000000000000e+01
2.444000000000000000e+03,6.702000000000000000e+03,1.360000000000000000e+02
2.444000000000000000e+03,6.689000000000000000e+03,1.360000000000000000e+02
2.444000000000000000e+03,6.689000000000000000e+03,1.360000000000000000e+02
2.444000000000000000e+03,6.689000000000000000e+03,1.360000000000000000e+02
2.434000000000000000e+03,6.689000000000000000e+03,-1.420000000000000000e+02
2.434000000000000000e+03,6.680000000000000000e+03,-1.420000000000000000e+02
2.434000000000000000e+03,6.680000000000000000e+03,-1.420000000000000000e+02
2.434000000000000000e+03,6.680000000000000000e+03,-1.420000000000000000e+02
2.422000000000000000e+03,6.680000000000000000e+03,-1.020000000000000000e+02
2.422000000000000000e+03,6.660000000000000000e+03,-1.020000000000000000e+02
2.422000000000000000e+03,6.660000000000000000e+03,-1.020000000000000000e+02
2.422000000000000000e+03,6.660000000000000000e+03,-1.020000000000000000e+02
2.421000000000000000e+03,6.660000000000000000e+03,2.900000000000000000e+01
2.421000000000000000e+03,6.670000000000000000e+03,2.900000000000000000e+01
2.421000000000000000e+03,6.670000000000000000e+03,2.900000000000000000e+01
2.421000000000000000e+03,6.670000000000000000e+03,2.900000000000000000e+01
2.434000000000000000e+03,6.670000000000000000e+03,6.300000000000000000e+01
2.434000000000000000e+03,6.685000000000000000e+03,6.300000000000000000e+01
2.434000000000000000e+03,6.685000000000000000e+03,6.300000000000000000e+01
2.434000000000000000e+03,6.685000000000000000e+03,6.300000000000000000e+01
2.438000000000000000e+03,6.685000000000000000e+03,1.070000000000000000e+02
2.438000000000000000e+03,6.688000000000000000e+03,1.070000000000000000e+02
2.438000000000000000e+03,6.688000000000000000e+03,1.070000000000000000e+02
2.438000000000000000e+03,6.688000000000000000e+03,1.070000000000000000e+02
2.446000000000000000e+03,6.688000000000000000e+03,5.400000000000000000e+01
2.446000000000000000e+03,6.713000000000000000e+03,5.400000000000000000e+01
2.446000000000000000e+03,6.713000000000000000e+03,5.400000000000000000e+01
2.446000000000000000e+03,6.713000000000000000e+03,5.400000000000000000e+01
2.457000000000000000e+03,6.713000000000000000e+03,1.200000000000000000e+01
2.457000000000000000e+03,6.712000000000000000e+03,1.200000000000000000e+01
2.457000000000000000e+03,6.712000000000000000e+03,1.200000000000000000e+01
2.457000000000000000e+03,6.712000000000000000e+03,1.200000000000000000e+01
2.450000000000000000e+03,6.712000000000000000e+03,1.700000000000000000e+02
2.450000000000000000e+03,6.733000000000000000e+03,1.700000000000000000e+02
2.450000000000000000e+03,6.733000000000000000e+03,1.700000000000000000e+02
2.450000000000000000e+03,6.733000000000000000e+03,1.700000000000000000e+02
2.446000000000000000e+03,6.733000000000000000e+03,7.300000000000000000e+01
2.446000000000000000e+03,6.724000000000000000e+03,7.300000000000000000e+01
2.446000000000000000e+03,6.724000000000000000e+03,7.300000000000000000e+01
2.446000000000000000e+03,6.724000000000000000e+03,7.300000000000000000e+01
2.434000000000000000e+03,6.724000000000000000e+03,1.630000000000000000e+02
2.434000000000000000e+03,6.720000000000000000e+03,1.630000000000000000e+02
2.434000000000000000e+03,6.720000000000000000e+03,1.630000000000000000e+02
2.434000000000000000e+03,6.720000000000000000e+03,1.630000000000000000e+02
2.442000000000000000e+03,6.720000000000000000e+03,-4.800000000000000000e+01
2.442000000000000000e+03,6.734000000000000000e+03,-4.800000000000000000e+01
2.442000000000000000e+03,6.734000000000000000e+03,-4.800000000000000000e+01
2.442000000000000000e+03,6.734000000000000000e+03,-4.800000000000000000e+01
2.443000000000000000e+03,6.734000000000000000e+03,8.100000000000000000e+01
2.443000000000000000e+03,6.725000000000000000e+03,8.100000000000000000e+01
2.443000000000000000e+03,6.725000000000000000e+03,8.100000000000000000e+01
2.443000000000000000e+03,6.725000000000000000e+03,8.100000000000000000e+01
2.445000000000000000e+03,6.725000000000000000e+03,2.940000000000000000e+02
2.445000000000000000e+03,6.716000000000000000e+03,2.940000000000000000e+02
2.445000000000000000e+03,6.716000000000000000e+03,2.940000000000000000e+02
2.445000000000000000e+03,6.716000000000000000e+03,2.940000000000000000e+02
2.449000000000000000e+03,6.716000000000000000e+03,2.340000000000000000e+02
2.449000000000000000e+03,6.729000000000000000e+03,2.340000000000000000e+02
2.449000000000000000e+03,6.729000000000000000e+03,2.340000000000000000e+02
2.449000000000000000e+03,6.729000000000000000e+03,2.340000000000000000e+02
2.446000000000000000e+03,6.729000000000000000e+03,2.090000000000000000e+02
2.446000000000000000e+03,6.738000000000000000e+03,2.090000000000000000e+02
2.446000000000000000e+03,6.738000000000000000e+03,2.090000000000000000e+02
2.446000000000000000e+03,6.738000000000000000e+03,2.090000000000000000e+02
2.442000000000000000e+03,6.738000000000000000e+03,2.310000000000000000e+02
2.442000000000000000e+03,6.724000000000000000e+03,2.310000000000000000e+02
2.442000000000000000e+03,6.724000000000000000e+03,2.310000000000000000e+02
2.442000000000000000e+03,6.724000000000000000e+03,2.310000000000000000e+02
2.434000000000000000e+03,6.724000000000000000e+03,1.160000000000000000e+02
2.434000000000000000e+03,6.734000000000000000e+03,1.160000000000000000e+02
2.434000000000000000e+03,6.734000000000000000e+03,1.160000000000000000e+02
2.434000000000000000e+03,6.734000000000000000e+03,1.160000000000000000e+02
2.441000000000000000e+03,6.734000000000000000e+03,2.730000000000000000e+02
2.441000000000000000e+03,6.730000000000000000e+03,2.730000000000000000e+02
2.441000000000000000e+03,6.730000000000000000e+03,2.730000000000000000e+02
2.441000000000000000e+03,6.730000000000000000e+03,2.730000000000000000e+02
2.436000000000000000e+03,6.730000000000000000e+03,7.990000000000000000e+02
2.436000000000000000e+03,6.755000000000000000e+03,7.990000000000000000e+02
2.436000000000000000e+03,6.755000000000000000e+03,7.990000000000000000e+02
2.436000000000000000e+03,6.755000000000000000e+03,7.990000000000000000e+02
2.433000000000000000e+03,6.755000000000000000e+03,-2.470000000000000000e+02
2.433000000000000000e+03,6.762000000000000000e+03,-2.470000000000000000e+02
2.433000000000000000e+03,6.762000000000000000e+03,-2.470000000000000000e+02
2.433000000000000000e+03,6.762000000000000000e+03,-2.470000000000000000e+02
2.438000000000000000e+03,6.762000000000000000e+03,-1.900000000000000000e+01
2.438000000000000000e+03,6.756000000000000000e+03,-1.900000000000000000e+01
2.438000000000000000e+03,6.756000000000000000e+03,-1.900000000000000000e+01
2.438000000000000000e+03,6.756000000000000000e+03,-1.900000000000000000e+01
2.446000000000000000e+03,6.756000000000000000e+03,1.800000000000000000e+02
2.446000000000000000e+03,6.753000000000000000e+03,1.800000000000000000e+02
2.446000000000000000e+03,6.753000000000000000e+03,1.800000000000000000e+02
2.446000000000000000e+03,6.753000000000000000e+03,1.800000000000000000e+02
2.426000000000000000e+03,6.753000000000000000e+03,2.010000000000000000e+02
2.426000000000000000e+03,6.757000000000000000e+03,2.010000000000000000e+02
2.426000000000000000e+03,6.757000000000000000e+03,2.010000000000000000e+02
2.426000000000000000e+03,6.757000000000000000e+03,2.010000000000000000e+02
2.435000000000000000e+03,6.757000000000000000e+03,2.640000000000000000e+02
2.435000000000000000e+03,6.772000000000000000e+03,2.640000000000000000e+02
2.435000000000000000e+03,6.772000000000000000e+03,2.640000000000000000e+02
2.435000000000000000e+03,6.772000000000000000e+03,2.640000000000000000e+02
2.437000000000000000e+03,6.772000000000000000e+03,2.420000000000000000e+02
2.437000000000000000e+03,6.750000000000000000e+03,2.420000000000000000e+02
2.437000000000000000e+03,6.750000000000000000e+03,2.420000000000000000e+02
2.437000000000000000e+03,6.750000000000000000e+03,2.420000000000000000e+02
2.423000000000000000e+03,6.750000000000000000e+03,2.450000000000000000e+02
2.423000000000000000e+03,6.763000000000000000e+03,2.450000000000000000e+02
2.423000000000000000e+03,6.763000000000000000e+03,2.450000000000000000e+02
2.423000000000000000e+03,6.763000000000000000e+03,2.450000000000000000e+02
2.420000000000000000e+03,6.763000000000000000e+03,1.960000000000000000e+02
2.420000000000000000e+03,6.752000000000000000e+03,1.960000000000000000e+02
2.420000000000000000e+03,6.752000000000000000e+03,1.960000000000000000e+02
2.420000000000000000e+03,6.752000000000000000e+03,1.960000000000000000e+02
2.418000000000000000e+03,6.752000000000000000e+03,5.300000000000000000e+02
2.418000000000000000e+03,6.766000000000000000e+03,5.300000000000000000e+02
2.418000000000000000e+03,6.766000000000000000e+03,5.300000000000000000e+02
2.418000000000000000e+03,6.766000000000000000e+03,5.300000000000000000e+02
2.409000000000000000e+03,6.766000000000000000e+03,3.230000000000000000e+02
2.409000000000000000e+03,6.759000000000000000e+03,3.230000000000000000e+02
2.409000000000000000e+03,6.759000000000000000e+03,3.230000000000000000e+02
2.409000000000000000e+03,6.759000000000000000e+03,3.230000000000000000e+02
2.407000000000000000e+03,6.759000000000000000e+03,2.720000000000000000e+02
2.407000000000000000e+03,6.734000000000000000e+03,2.720000000000000000e+02
2.407000000000000000e+03,6.734000000000000000e+03,2.720000000000000000e+02
2.407000000000000000e+03,6.734000000000000000e+03,2.720000000000000000e+02
2.387000000000000000e+03,6.734000000000000000e+03,-1.100000000000000000e+01
2.387000000000000000e+03,6.696000000000000000e+03,-1.100000000000000000e+01
2.387000000000000000e+03,6.696000000000000000e+03,-1.100000000000000000e+01
2.387000000000000000e+03,6.696000000000000000e+03,-1.100000000000000000e+01
2.374000000000000000e+03,6.696000000000000000e+03,7.400000000000000000e+01
2.374000000000000000e+03,6.684000000000000000e+03,7.400000000000000000e+01
2.374000000000000000e+03,6.684000000000000000e+03,7.400000000000000000e+01
2.374000000000000000e+03,6.684000000000000000e+03,7.400000000000000000e+01
2.372000000000000000e+03,6.684000000000000000e+03,6.000000000000000000e+01
2.372000000000000000e+03,6.661000000000000000e+03,6.000000000000000000e+01
2.372000000000000000e+03,6.661000000000000000e+03,6.000000000000000000e+01
2.372000000000000000e+03,6.661000000000000000e+03,6.000000000000000000e+01
2.365000000000000000e+03,6.661000000000000000e+03,9.500000000000000000e+01
2.365000000000000000e+03,6.674000000000000000e+03,9.500000000000000000e+01
2.365000000000000000e+03,6.674000000000000000e+03,9.500000000000000000e+01
2.365000000000000000e+03,6.674000000000000000e+03,9.500000000000000000e+01
2.359000000000000000e+03,6.674000000000000000e+03,1.200000000000000000e+01
2.359000000000000000e+03,6.677000000000000000e+03,1.200000000000000000e+01
2.359000000000000000e+03,6.677000000000000000e+03,1.200000000000000000e+01
2.359000000000000000e+03,6.677000000000000000e+03,1.200000000000000000e+01
2.354000000000000000e+03,6.677000000000000000e+03,-1.530000000000000000e+02
2.354000000000000000e+03,6.679000000000000000e+03,-1.530000000000000000e+02
2.354000000000000000e+03,6.679000000000000000e+03,-1.530000000000000000e+02
2.354000000000000000e+03,6.679000000000000000e+03,-1.530000000000000000e+02
2.361000000000000000e+03,6.679000000000000000e+03,-5.700000000000000000e+01
2.361000000000000000e+03,6.670000000000000000e+03,-5.700000000000000000e+01
2.361000000000000000e+03,6.670000000000000000e+03,-5.700000000000000000e+01
2.361000000000000000e+03,6.670000000000000000e+03,-5.700000000000000000e+01
2.348000000000000000e+03,6.670000000000000000e+03,-6.800000000000000000e+01
2.348000000000000000e+03,6.665000000000000000e+03,-6.800000000000000000e+01
2.348000000000000000e+03,6.665000000000000000e+03,-6.800000000000000000e+01
2.348000000000000000e+03,6.665000000000000000e+03,-6.800000000000000000e+01
2.347000000000000000e+03,6.665000000000000000e+03,-1.700000000000000000e+02
2.347000000000000000e+03,6.676000000000000000e+03,-1.700000000000000000e+02
2.347000000000000000e+03,6.676000000000000000e+03,-1.700000000000000000e+02
2.347000000000000000e+03,6.676000000000000000e+03,-1.700000000000000000e+02
2.348000000000000000e+03,6.676000000000000000e+03,-2.260000000000000000e+02
2.348000000000000000e+03,6.660000000000000000e+03,-2.260000000000000000e+02
2.348000000000000000e+03,6.660000000000000000e+03,-2.260000000000000000e+02
2.348000000000000000e+03,6.660000000000000000e+03,-2.260000000000000000e+02
2.327000000000000000e+03,6.660000000000000000e+03,-2.710000000000000000e+02
2.327000000000000000e+03,6.664000000000000000e+03,-2.710000000000000000e+02
2.327000000000000000e+03,6.664000000000000000e+03,-2.710000000000000000e+02
2.327000000000000000e+03,6.664000000000000000e+03,-2.710000000000000000e+02
2.332000000000000000e+03,6.664000000000000000e+03,-2.580000000000000000e+02
2.332000000000000000e+03,6.655000000000000000e+03,-2.580000000000000000e+02
2.332000000000000000e+03,6.655000000000000000e+03,-2.580000000000000000e+02
2.332000000000000000e+03,6.655000000000000000e+03,-2.580000000000000000e+02
2.326000000000000000e+03,6.655000000000000000e+03,-1.480000000000000000e+02
2.326000000000000000e+03,6.649000000000000000e+03,-1.480000000000000000e+02
2.326000000000000000e+03,6.649000000000000000e+03,-1.480000000000000000e+02
2.326000000000000000e+03,6.649000000000000000e+03,-1.480000000000000000e+02
2.318000000000000000e+03,6.649000000000000000e+03,-1.910000000000000000e+02
2.318000000000000000e+03,6.651000000000000000e+03,-1.910000000000000000e+02
2.318000000000000000e+03,6.651000000000000000e+03,-1.910000000000000000e+02
2.318000000000000000e+03,6.651000000000000000e+03,-1.910000000000000000e+02
2.324000000000000000e+03,6.651000000000000000e+03,-1.970000000000000000e+02
2.324000000000000000e+03,6.651000000000000000e+03,-1.970000000000000000e+02
2.324000000000000000e+03,6.651000000000000000e+03,-1.970000000000000000e+02
2.324000000000000000e+03,6.651000000000000000e+03,-1.970000000000000000e+02
2.310000000000000000e+03,6.651000000000000000e+03,-2.510000000000000000e+02
2.310000000000000000e+03,6.667000000000000000e+03,-2.510000000000000000e+02
2.310000000000000000e+03,6.667000000000000000e+03,-2.510000000000000000e+02
2.310000000000000000e+03,6.667000000000000000e+03,-2.510000000000000000e+02
2.323000000000000000e+03,6.667000000000000000e+03,-1.610000000000000000e+02
2.323000000000000000e+03,6.655000000000000000e+03,-1.610000000000000000e+02
2.323000000000000000e+03,6.655000000000000000e+03,-1.610000000000000000e+02
2.323000000000000000e+03,6.655000000000000000e+03,-1.610000000000000000e+02
2.304000000000000000e+03,6.655000000000000000e+03,-1.360000000000000000e+02
2.304000000000000000e+03,6.644000000000000000e+03,-1.360000000000000000e+02
2.304000000000000000e+03,6.644000000000000000e+03,-1.360000000000000000e+02
2.304000000000000000e+03,6.644000000000000000e+03,-1.360000000000000000e+02
2.312000000000000000e+03,6.644000000000000000e+03,-3.700000000000000000e+02
2.312000000000000000e+03,6.644000000000000000e+03,-3.700000000000000000e+02
2.312000000000000000e+03,6.644000000000000000e+03,-3.700000000000000000e+02
2.312000000000000000e+03,6.644000000000000000e+03,-3.700000000000000000e+02
2.313000000000000000e+03,6.644000000000000000e+03,-3.010000000000000000e+02
2.313000000000000000e+03,6.641000000000000000e+03,-3.010000000000000000e+02
2.313000000000000000e+03,6.641000000000000000e+03,-3.010000000000000000e+02
2.313000000000000000e+03,6.641000000000000000e+03,-3.010000000000000000e+02
2.307000000000000000e+03,6.641000000000000000e+03,-4.940000000000000000e+02
2.307000000000000000e+03,6.654000000000000000e+03,-4.940000000000000000e+02
2.307000000000000000e+03,6.654000000000000000e+03,-4.940000000000000000e+02
2.307000000000000000e+03,6.654000000000000000e+03,-4.940000000000000000e+02
2.303000000000000000e+03,6.654000000000000000e+03,1.230000000000000000e+02
2.303000000000000000e+03,6.646000000000000000e+03,1.230000000000000000e+02
2.303000000000000000e+03,6.646000000000000000e+03,1.230000000000000000e+02
2.303000000000000000e+03,6.646000000000000000e+03,1.230000000000000000e+02
2.323000000000000000e+03,6.646000000000000000e+03,-3.070000000000000000e+02
2.323000000000000000e+03,6.665000000000000000e+03,-3.070000000000000000e+02
2.323000000000000000e+03,6.665000000000000000e+03,-3.070000000000000000e+02
2.323000000000000000e+03,6.665000000000000000e+03,-3.070000000000000000e+02
2.313000000000000000e+03,6.665000000000000000e+03,-2.190000000000000000e+02
2.313000000000000000e+03,6.677000000000000000e+03,-2.190000000000000000e+02
2.313000000000000000e+03,6.677000000000000000e+03,-2.190000000000000000e+02
2.313000000000000000e+03,6.677000000000000000e+03,-2.190000000000000000e+02
2.326000000000000000e+03,6.677000000000000000e+03,-2.700000000000000000e+01
2.326000000000000000e+03,6.672000000000000000e+03,-2.700000000000000000e+01
2.326000000000000000e+03,6.672000000000000000e+03,-2.700000000000000000e+01
2.326000000000000000e+03,6.672000000000000000e+03,-2.700000000000000000e+01
2.330000000000000000e+03,6.672000000000000000e+03,-3.060000000000000000e+02
2.330000000000000000e+03,6.684000000000000000e+03,-3.060000000000000000e+02
2.330000000000000000e+03,6.684000000000000000e+03,-3.060000000000000000e+02
2.330000000000000000e+03,6.684000000000000000e+03,-3.060000000000000000e+02
2.329000000000000000e+03,6.684000000000000000e+03,-1.580000000000000000e+02
2.329000000000000000e+03,6.682000000000000000e+03,-1.580000000000000000e+02
2.329000000000000000e+03,6.682000000000000000e+03,-1.580000000000000000e+02
2.329000000000000000e+03,6.682000000000000000e+03,-1.580000000000000000e+02
2.328000000000000000e+03,6.682000000000000000e+03,-4.700000000000000000e+01
2.328000000000000000e+03,6.696000000000000000e+03,-4.700000000000000000e+01
2.328000000000000000e+03,6.696000000000000000e+03,-4.700000000000000000e+01
2.328000000000000000e+03,6.696000000000000000e+03,-4.700000000000000000e+01
2.322000000000000000e+03,6.696000000000000000e+03,-1.190000000000000000e+02
2.322000000000000000e+03,6.691000000000000000e+03,-1.190000000000000000e+02
2.322000000000000000e+03,6.691000000000000000e+03,-1.190000000000000000e+02
2.322000000000000000e+03,6.691000000000000000e+03,-1.190000000000000000e+02
2.324000000000000000e+03,6.691000000000000000e+03,-1.600000000000000000e+02
2.324000000000000000e+03,6.717000000000000000e+03,-1.600000000000000000e+02
2.324000000000000000e+03,6.717000000000000000e+03,-1.600000000000000000e+02
2.324000000000000000e+03,6.717000000000000000e+03,-1.600000000000000000e+02
2.324000000000000000e+03,6.717000000000000000e+03,-1.760000000000000000e+02
2.324000000000000000e+03,6.731000000000000000e+03,-1.760000000000000000e+02
2.324000000000000000e+03,6.731000000000000000e+03,-1.760000000000000000e+02
2.324000000000000000e+03,6.731000000000000000e+03,-1.760000000000000000e+02
2.338000000000000000e+03,6.731000000000000000e+03,1.800000000000000000e+01
2.338000000000000000e+03,6.720000000000000000e+03,1.800000000000000000e+01
2.338000000000000000e+03,6.720000000000000000e+03,1.800000000000000000e+01
2.338000000000000000e+03,6.720000000000000000e+03,1.800000000000000000e+01
2.325000000000000000e+03,6.720000000000000000e+03,-3.000000000000000000e+00
2.325000000000000000e+03,6.713000000000000000e+03,-3.000000000000000000e+00
2.325000000000000000e+03,6.713000000000000000e+03,-3.000000000000000000e+00
2.325000000000000000e+03,6.713000000000000000e+03,-3.000000000000000000e+00
2.313000000000000000e+03,6.713000000000000000e+03,-6.500000000000000000e+01
2.313000000000000000e+03,6.663000000000000000e+03,-6.500000000000000000e+01
2.313000000000000000e+03,6.663000000000000000e+03,-6.500000000000000000e+01
2.313000000000000000e+03,6.663000000000000000e+03,-6.500000000000000000e+01
2.293000000000000000e+03,6.663000000000000000e+03,-7.000000000000000000e+01
2.293000000000000000e+03,6.635000000000000000e+03,-7.000000000000000000e+01
2.293000000000000000e+03,6.635000000000000000e+03,-7.000000000000000000e+01
2.293000000000000000e+03,6.635000000000000000e+03,-7.000000000000000000e+01
2.295000000000000000e+03,6.635000000000000000e+03,-1.510000000000000000e+02
2.295000000000000000e+03,6.634000000000000000e+03,-1.510000000000000000e+02
2.295000000000000000e+03,6.634000000000000000e+03,-1.510000000000000000e+02
2.295000000000000000e+03,6.634000000000000000e+03,-1.510000000000000000e+02
2.294000000000000000e+03,6.634000000000000000e+03,-6.500000000000000000e+01
2.294000000000000000e+03,6.628000000000000000e+03,-6.500000000000000000e+01
2.294000000000000000e+03,6.628000000000000000e+03,-6.500000000000000000e+01
2.294000000000000000e+03,6.628000000000000000e+03,-6.500000000000000000e+01
2.285000000000000000e+03,6.628000000000000000e+03,-1.950000000000000000e+02
2.285000000000000000e+03,6.645000000000000000e+03,-1.950000000000000000e+02
2.285000000000000000e+03,6.645000000000000000e+03,-1.950000000000000000e+02
2.285000000000000000e+03,6.645000000000000000e+03,-1.950000000000000000e+02
2.297000000000000000e+03,6.645000000000000000e+03,-3.050000000000000000e+02
2.297000000000000000e+03,6.638000000000000000e+03,-3.050000000000000000e+02
2.297000000000000000e+03,6.638000000000000000e+03,-3.050000000000000000e+02
2.297000000000000000e+03,6.638000000000000000e+03,-3.050000000000000000e+02
2.289000000000000000e+03,6.638000000000000000e+03,-1.580000000000000000e+02
2.289000000000000000e+03,6.639000000000000000e+03,-1.580000000000000000e+02
2.289000000000000000e+03,6.639000000000000000e+03,-1.580000000000000000e+02
2.289000000000000000e+03,6.639000000000000000e+03,-1.580000000000000000e+02
2.282000000000000000e+03,6.639000000000000000e+03,-2.490000000000000000e+02
2.282000000000000000e+03,6.635000000000000000e+03,-2.490000000000000000e+02
2.282000000000000000e+03,6.635000000000000000e+03,-2.490000000000000000e+02
2.282000000000000000e+03,6.635000000000000000e+03,-2.490000000000000000e+02
2.279000000000000000e+03,6.635000000000000000e+03,-1.560000000000000000e+02
2.279000000000000000e+03,6.647000000000000000e+03,-1.560000000000000000e+02
2.279000000000000000e+03,6.647000000000000000e+03,-1.560000000000000000e+02
2.279000000000000000e+03,6.647000000000000000e+03,-1.560000000000000000e+02
2.262000000000000000e+03,6.647000000000000000e+03,-2.200000000000000000e+02
2.262000000000000000e+03,6.637000000000000000e+03,-2.200000000000000000e+02
2.262000000000000000e+03,6.637000000000000000e+03,-2.200000000000000000e+02
2.262000000000000000e+03,6.637000000000000000e+03,-2.200000000000000000e+02
2.260000000000000000e+03,6.637000000000000000e+03,-1.930000000000000000e+02
2.260000000000000000e+03,6.646000000000000000e+03,-1.930000000000000000e+02
2.260000000000000000e+03,6.646000000000000000e+03,-1.930000000000000000e+02
2.260000000000000000e+03,6.646000000000000000e+03,-1.930000000000000000e+02
2.249000000000000000e+03,6.646000000000000000e+03,-3.680000000000000000e+02
2.249000000000000000e+03,6.611000000000000000e+03,-3.680000000000000000e+02
2.249000000000000000e+03,6.611000000000000000e+03,-3.680000000000000000e+02
2.249000000000000000e+03,6.611000000000000000e+03,-3.680000000000000000e+02
2.250000000000000000e+03,6.611000000000000000e+03,-3.450000000000000000e+02
2.250000000000000000e+03,6.609000000000000000e+03,-3.450000000000000000e+02
2.250000000000000000e+03,6.609000000000000000e+03,-3.450000000000000000e+02
2.250000000000000000e+03,6.609000000000000000e+03,-3.450000000000000000e+02
2.249000000000000000e+03,6.609000000000000000e+03,-2.030000000000000000e+02
2.249000000000000000e+03,6.615000000000000000e+03,-2.030000000000000000e+02
2.249000000000000000e+03,6.615000000000000000e+03,-2.030000000000000000e+02
2.249000000000000000e+03,6.615000000000000000e+03,-2.030000000000000000e+02
2.254000000000000000e+03,6.615000000000000000e+03,-4.200000000000000000e+02
2.254000000000000000e+03,6.618000000000000000e+03,-4.200000000000000000e+02
2.254000000000000000e+03,6.618000000000000000e+03,-4.200000000000000000e+02
2.254000000000000000e+03,6.618000000000000000e+03,-4.200000000000000000e+02
2.255000000000000000e+03,6.618000000000000000e+03,-2.130000000000000000e+02
2.255000000000000000e+03,6.625000000000000000e+03,-2.130000000000000000e+02
2.255000000000000000e+03,6.625000000000000000e+03,-2.130000000000000000e+02
2.255000000000000000e+03,6.625000000000000000e+03,-2.130000000000000000e+02
2.247000000000000000e+03,6.625000000000000000e+03,-3.540000000000000000e+02
2.247000000000000000e+03,6.621000000000000000e+03,-3.540000000000000000e+02
2.247000000000000000e+03,6.621000000000000000e+03,-3.540000000000000000e+02
2.247000000000000000e+03,6.621000000000000000e+03,-3.540000000000000000e+02
2.262000000000000000e+03,6.621000000000000000e+03,-2.050000000000000000e+02
2.262000000000000000e+03,6.645000000000000000e+03,-2.050000000000000000e+02
2.262000000000000000e+03,6.645000000000000000e+03,-2.050000000000000000e+02
2.262000000000000000e+03,6.645000000000000000e+03,-2.050000000000000000e+02
2.264000000000000000e+03,6.645000000000000000e+03,-1.120000000000000000e+02
2.264000000000000000e+03,6.646000000000000000e+03,-1.120000000000000000e+02
2.264000000000000000e+03,6.646000000000000000e+03,-1.120000000000000000e+02
2.264000000000000000e+03,6.646000000000000000e+03,-1.120000000000000000e+02
2.255000000000000000e+03,6.646000000000000000e+03,-1.310000000000000000e+02
2.255000000000000000e+03,6.640000000000000000e+03,-1.310000000000000000e+02
2.255000000000000000e+03,6.640000000000000000e+03,-1.310000000000000000e+02
2.255000000000000000e+03,6.640000000000000000e+03,-1.310000000000000000e+02
2.248000000000000000e+03,6.640000000000000000e+03,-3.700000000000000000e+02
2.248000000000000000e+03,6.654000000000000000e+03,-3.700000000000000000e+02
2.248000000000000000e+03,6.654000000000000000e+03,-3.700000000000000000e+02
2.248000000000000000e+03,6.654000000000000000e+03,-3.700000000000000000e+02
2.260000000000000000e+03,6.654000000000000000e+03,-2.760000000000000000e+02
2.260000000000000000e+03,6.644000000000000000e+03,-2.760000000000000000e+02
2.260000000000000000e+03,6.644000000000000000e+03,-2.760000000000000000e+02
2.260000000000000000e+03,6.644000000000000000e+03,-2.760000000000000000e+02
2.250000000000000000e+03,6.644000000000000000e+03,-2.440000000000000000e+02
2.250000000000000000e+03,6.659000000000000000e+03,-2.440000000000000000e+02
2.250000000000000000e+03,6.659000000000000000e+03,-2.440000000000000000e+02
2.250000000000000000e+03,6.659000000000000000e+03,-2.440000000000000000e+02
2.263000000000000000e+03,6.659000000000000000e+03,-1.610000000000000000e+02
2.263000000000000000e+03,6.654000000000000000e+03,-1.610000000000000000e+02
2.263000000000000000e+03,6.654000000000000000e+03,-1.610000000000000000e+02
2.263000000000000000e+03,6.654000000000000000e+03,-1.610000000000000000e+02
2.240000000000000000e+03,6.654000000000000000e+03,1.410000000000000000e+02
2.240000000000000000e+03,6.649000000000000000e+03,1.410000000000000000e+02
2.240000000000000000e+03,6.649000000000000000e+03,1.410000000000000000e+02
2.240000000000000000e+03,6.649000000000000000e+03,1.410000000000000000e+02
2.254000000000000000e+03,6.649000000000000000e+03,-4.270000000000000000e+02
2.254000000000000000e+03,6.661000000000000000e+03,-4.270000000000000000e+02
2.254000000000000000e+03,6.661000000000000000e+03,-4.270000000000000000e+02
2.254000000000000000e+03,6.661000000000000000e+03,-4.270000000000000000e+02
2.248000000000000000e+03,6.661000000000000000e+03,-3.750000000000000000e+02
2.248000000000000000e+03,6.660000000000000000e+03,-3.750000000000000000e+02
2.248000000000000000e+03,6.660000000000000000e+03,-3.750000000000000000e+02
2.248000000000000000e+03,6.660000000000000000e+03,-3.750000000000000000e+02
2.236000000000000000e+03,6.660000000000000000e+03,-1.190000000000000000e+02
2.236000000000000000e+03,6.639000000000000000e+03,-1.190000000000000000e+02
2.236000000000000000e+03,6.639000000000000000e+03,-1.190000000000000000e+02
2.236000000000000000e+03,6.639000000000000000e+03,-1.190000000000000000e+02
2.233000000000000000e+03,6.639000000000000000e+03,-7.100000000000000000e+01
2.233000000000000000e+03,6.659000000000000000e+03,-7.100000000000000000e+01
2.233000000000000000e+03,6.659000000000000000e+03,-7.100000000000000000e+01
2.233000000000000000e+03,6.659000000000000000e+03,-7.100000000000000000e+01
2.230000000000000000e+03,6.659000000000000000e+03,4.200000000000000000e+01
2.230000000000000000e+03,6.655000000000000000e+03,4.200000000000000000e+01
2.230000000000000000e+03,6.655000000000000000e+03,4.200000000000000000e+01
2.230000000000000000e+03,6.655000000000000000e+03,4.200000000000000000e+01
2.231000000000000000e+03,6.655000000000000000e+03,-7.600000000000000000e+01
2.231000000000000000e+03,6.649000000000000000e+03,-7.600000000000000000e+01
2.231000000000000000e+03,6.649000000000000000e+03,-7.600000000000000000e+01
2.231000000000000000e+03,6.649000000000000000e+03,-7.600000000000000000e+01
2.227000000000000000e+03,6.649000000000000000e+03,-2.950000000000000000e+02
2.227000000000000000e+03,6.647000000000000000e+03,-2.950000000000000000e+02
2.227000000000000000e+03,6.647000000000000000e+03,-2.950000000000000000e+02
2.227000000000000000e+03,6.647000000000000000e+03,-2.950000000000000000e+02
2.237000000000000000e+03,6.647000000000000000e+03,-4.900000000000000000e+01
2.237000000000000000e+03,6.646000000000000000e+03,-4.900000000000000000e+01
2.237000000000000000e+03,6.646000000000000000e+03,-4.900000000000000000e+01
2.237000000000000000e+03,6.646000000000000000e+03,-4.900000000000000000e+01
2.230000000000000000e+03,6.646000000000000000e+03,8.700000000000000000e+01
2.230000000000000000e+03,6.644000000000000000e+03,8.700000000000000000e+01
2.230000000000000000e+03,6.644000000000000000e+03,8.700000000000000000e+01
2.230000000000000000e+03,6.644000000000000000e+03,8.700000000000000000e+01
2.223000000000000000e+03,6.644000000000000000e+03,-7.100000000000000000e+01
2.223000000000000000e+03,6.629000000000000000e+03,-7.100000000000000000e+01
2.223000000000000000e+03,6.629000000000000000e+03,-7.100000000000000000e+01
2.223000000000000000e+03,6.629000000000000000e+03,-7.100000000000000000e+01
2.194000000000000000e+03,6.629000000000000000e+03,-1.690000000000000000e+02
2.194000000000000000e+03,6.596000000000000000e+03,-1.690000000000000000e+02
2.194000000000000000e+03,6.596000000000000000e+03,-1.690000000000000000e+02
2.194000000000000000e+03,6.596000000000000000e+03,-1.690000000000000000e+02
2.179000000000000000e+03,6.596000000000000000e+03,-5.400000000000000000e+01
2.179000000000000000e+03,6.572000000000000000e+03,-5.400000000000000000e+01
2.179000000000000000e+03,6.572000000000000000e+03,-5.400000000000000000e+01
2.179000000000000000e+03,6.572000000000000000e+03,-5.400000000000000000e+01
2.181000000000000000e+03,6.572000000000000000e+03,-1.180000000000000000e+02
2.181000000000000000e+03,6.557000000000000000e+03,-1.180000000000000000e+02
2.181000000000000000e+03,6.557000000000000000e+03,-1.180000000000000000e+02
2.181000000000000000e+03,6.557000000000000000e+03,-1.180000000000000000e+02
2.171000000000000000e+03,6.557000000000000000e+03,-2.070000000000000000e+02
2.171000000000000000e+03,6.552000000000000000e+03,-2.070000000000000000e+02
2.171000000000000000e+03,6.552000000000000000e+03,-2.070000000000000000e+02
2.171000000000000000e+03,6.552000000000000000e+03,-2.070000000000000000e+02
2.170000000000000000e+03,6.552000000000000000e+03,-1.020000000000000000e+02
2.170000000000000000e+03,6.560000000000000000e+03,-1.020000000000000000e+02
2.170000000000000000e+03,6.560000000000000000e+03,-1.020000000000000000e+02
2.170000000000000000e+03,6.560000000000000000e+03,-1.020000000000000000e+02
2.177000000000000000e+03,6.560000000000000000e+03,-2.120000000000000000e+02
2.177000000000000000e+03,6.568000000000000000e+03,-2.120000000000000000e+02
2.177000000000000000e+03,6.568000000000000000e+03,-2.120000000000000000e+02
2.177000000000000000e+03,6.568000000000000000e+03,-2.120000000000000000e+02
2.173000000000000000e+03,6.568000000000000000e+03,-1.690000000000000000e+02
2.173000000000000000e+03,6.572000000000000000e+03,-1.690000000000000000e+02
2.173000000000000000e+03,6.572000000000000000e+03,-1.690000000000000000e+02
2.173000000000000000e+03,6.572000000000000000e+03,-1.690000000000000000e+02
2.171000000000000000e+03,6.572000000000000000e+03,-1.370000000000000000e+02
2.171000000000000000e+03,6.580000000000000000e+03,-1.370000000000000000e+02
2.171000000000000000e+03,6.580000000000000000e+03,-1.370000000000000000e+02
2.171000000000000000e+03,6.580000000000000000e+03,-1.370000000000000000e+02
2.162000000000000000e+03,6.580000000000000000e+03,4.000000000000000000e+01
2.162000000000000000e+03,6.561000000000000000e+03,4.000000000000000000e+01
2.162000000000000000e+03,6.561000000000000000e+03,4.000000000000000000e+01
2.162000000000000000e+03,6.561000000000000000e+03,4.000000000000000000e+01
2.161000000000000000e+03,6.561000000000000000e+03,-1.100000000000000000e+02
2.161000000000000000e+03,6.558000000000000000e+03,-1.100000000000000000e+02
2.161000000000000000e+03,6.558000000000000000e+03,-1.100000000000000000e+02
2.161000000000000000e+03,6.558000000000000000e+03,-1.100000000000000000e+02
2.156000000000000000e+03,6.558000000000000000e+03,-7.800000000000000000e+01
2.156000000000000000e+03,6.579000000000000000e+03,-7.800000000000000000e+01
2.156000000000000000e+03,6.579000000000000000e+03,-7.800000000000000000e+01
2.156000000000000000e+03,6.579000000000000000e+03,-7.800000000000000000e+01
2.158000000000000000e+03,6.579000000000000000e+03,-4.900000000000000000e+01
2.158000000000000000e+03,6.578000000000000000e+03,-4.900000000000000000e+01
2.158000000000000000e+03,6.578000000000000000e+03,-4.900000000000000000e+01
2.158000000000000000e+03,6.578000000000000000e+03,-4.900000000000000000e+01
2.163000000000000000e+03,6.578000000000000000e+03,-7.600000000000000000e+01
2.163000000000000000e+03,6.571000000000000000e+03,-7.600000000000000000e+01
2.163000000000000000e+03,6.571000000000000000e+03,-7.600000000000000000e+01
2.163000000000000000e+03,6.571000000000000000e+03,-7.600000000000000000e+01
2.142000000000000000e+03,6.571000000000000000e+03,1.330000000000000000e+02
2.142000000000000000e+03,6.557000000000000000e+03,1.330000000000000000e+02
2.142000000000000000e+03,6.557000000000000000e+03,1.330000000000000000e+02
2.142000000000000000e+03,6.557000000000000000e+03,1.330000000000000000e+02
2.142000000000000000e+03,6.557000000000000000e+03,-1.190000000000000000e+02
2.142000000000000000e+03,6.546000000000000000e+03,-1.190000000000000000e+02
2.142000000000000000e+03,6.546000000000000000e+03,-1.190000000000000000e+02
2.142000000000000000e+03,6.546000000000000000e+03,-1.190000000000000000e+02
2.151000000000000000e+03,6.546000000000000000e+03,5.400000000000000000e+01
2.151000000000000000e+03,6.553000000000000000e+03,5.400000000000000000e+01
2.151000000000000000e+03,6.553000000000000000e+03,5.400000000000000000e+01
2.151000000000000000e+03,6.553000000000000000e+03,5.400000000000000000e+01
2.151000000000000000e+03,6.553000000000000000e+03,-6.800000000000000000e+01
2.151000000000000000e+03,6.559000000000000000e+03,-6.800000000000000000e+01
2.151000000000000000e+03,6.559000000000000000e+03,-6.800000000000000000e+01
2.151000000000000000e+03,6.559000000000000000e+03,-6.800000000000000000e+01
2.137000000000000000e+03,6.559000000000000000e+03,-1.300000000000000000e+01
2.137000000000000000e+03,6.562000000000000000e+03,-1.300000000000000000e+01
2.137000000000000000e+03,6.562000000000000000e+03,-1.300000000000000000e+01
2.137000000000000000e+03,6.562000000000000000e+03,-1.300000000000000000e+01
2.147000000000000000e+03,6.562000000000000000e+03,1.030000000000000000e+02
2.147000000000000000e+03,6.553000000000000000e+03,1.030000000000000000e+02
2.147000000000000000e+03,6.553000000000000000e+03,1.030000000000000000e+02
2.147000000000000000e+03,6.553000000000000000e+03,1.030000000000000000e+02
2.140000000000000000e+03,6.553000000000000000e+03,1.190000000000000000e+02
2.140000000000000000e+03,6.567000000000000000e+03,1.190000000000000000e+02
2.140000000000000000e+03,6.567000000000000000e+03,1.190000000000000000e+02
2.140000000000000000e+03,6.567000000000000000e+03,1.190000000000000000e+02
2.130000000000000000e+03,6.567000000000000000e+03,-2.500000000000000000e+01
2.130000000000000000e+03,6.560000000000000000e+03,-2.500000000000000000e+01
2.130000000000000000e+03,6.560000000000000000e+03,-2.500000000000000000e+01
2.130000000000000000e+03,6.560000000000000000e+03,-2.500000000000000000e+01
2.127000000000000000e+03,6.560000000000000000e+03,6.200000000000000000e+01
2.127000000000000000e+03,6.563000000000000000e+03,6.200000000000000000e+01
2.127000000000000000e+03,6.563000000000000000e+03,6.200000000000000000e+01
2.127000000000000000e+03,6.563000000000000000e+03,6.200000000000000000e+01
2.123000000000000000e+03,6.563000000000000000e+03,-1.000000000000000000e+02
2.123000000000000000e+03,6.554000000000000000e+03,-1.000000000000000000e+02
2.123000000000000000e+03,6.554000000000000000e+03,-1.000000000000000000e+02
2.123000000000000000e+03,6.554000000000000000e+03,-1.000000000000000000e+02
2.123000000000000000e+03,6.554000000000000000e+03,-1.200000000000000000e+01
2.123000000000000000e+03,6.542000000000000000e+03,-1.200000000000000000e+01
2.123000000000000000e+03,6.542000000000000000e+03,-1.200000000000000000e+01
2.123000000000000000e+03,6.542000000000000000e+03,-1.200000000000000000e+01
2.109000000000000000e+03,6.542000000000000000e+03,-1.970000000000000000e+02
2.109000000000000000e+03,6.542000000000000000e+03,-1.970000000000000000e+02
2.109000000000000000e+03,6.542000000000000000e+03,-1.970000000000000000e+02
2.109000000000000000e+03,6.542000000000000000e+03,-1.970000000000000000e+02
2.109000000000000000e+03,6.542000000000000000e+03,-1.630000000000000000e+02
2.109000000000000000e+03,6.540000000000000000e+03,-1.630000000000000000e+02
2.109000000000000000e+03,6.540000000000000000e+03,-1.630000000000000000e+02
2.109000000000000000e+03,6.540000000000000000e+03,-1.630000000000000000e+02
2.104000000000000000e+03,6.540000000000000000e+03,-1.200000000000000000e+01
2.104000000000000000e+03,6.538000000000000000e+03,-1.200000000000000000e+01
2.104000000000000000e+03,6.538000000000000000e+03,-1.200000000000000000e+01
2.104000000000000000e+03,6.538000000000000000e+03,-1.200000000000000000e+01
2.099000000000000000e+03,6.538000000000000000e+03,5.500000000000000000e+01
2.099000000000000000e+03,6.541000000000000000e+03,5.500000000000000000e+01
2.099000000000000000e+03,6.541000000000000000e+03,5.500000000000000000e+01
2.099000000000000000e+03,6.541000000000000000e+03,5.500000000000000000e+01
2.098000000000000000e+03,6.541000000000000000e+03,-1.980000000000000000e+02
2.098000000000000000e+03,6.544000000000000000e+03,-1.980000000000000000e+02
2.098000000000000000e+03,6.544000000000000000e+03,-1.980000000000000000e+02
2.098000000000000000e+03,6.544000000000000000e+03,-1.980000000000000000e+02
2.091000000000000000e+03,6.544000000000000000e+03,-9.900000000000000000e+01
2.091000000000000000e+03,6.538000000000000000e+03,-9.900000000000000000e+01
2.091000000000000000e+03,6.538000000000000000e+03,-9.900000000000000000e+01
2.091000000000000000e+03,6.538000000000000000e+03,-9.900000000000000000e+01
2.094000000000000000e+03,6.538000000000000000e+03,2.700000000000000000e+01
2.094000000000000000e+03,6.550000000000000000e+03,2.700000000000000000e+01
2.094000000000000000e+03,6.550000000000000000e+03,2.700000000000000000e+01
2.094000000000000000e+03,6.550000000000000000e+03,2.700000000000000000e+01
2.101000000000000000e+03,6.550000000000000000e+03,-4.500000000000000000e+01
2.101000000000000000e+03,6.562000000000000000e+03,-4.500000000000000000e+01
2.101000000000000000e+03,6.562000000000000000e+03,-4.500000000000000000e+01
2.101000000000000000e+03,6.562000000000000000e+03,-4.500000000000000000e+01
2.105000000000000000e+03,6.562000000000000000e+03,2.400000000000000000e+02
2.105000000000000000e+03,6.564000000000000000e+03,2.400000000000000000e+02
2.105000000000000000e+03,6.564000000000000000e+03,2.400000000000000000e+02
2.105000000000000000e+03,6.564000000000000000e+03,2.400000000000000000e+02
2.106000000000000000e+03,6.564000000000000000e+03,6.900000000000000000e+01
2.106000000000000000e+03,6.577000000000000000e+03,6.900000000000000000e+01
2.106000000000000000e+03,6.577000000000000000e+03,6.900000000000000000e+01
2.106000000000000000e+03,6.577000000000000000e+03,6.900000000000000000e+01
2.098000000000000000e+03,6.577000000000000000e+03,1.110000000000000000e+02
2.098000000000000000e+03,6.558000000000000000e+03,1.110000000000000000e+02
2.098000000000000000e+03,6.558000000000000000e+03,1.110000000000000000e+02
2.098000000000000000e+03,6.558000000000000000e+03,1.110000000000000000e+02
2.105000000000000000e+03,6.558000000000000000e+03,7.700000000000000000e+01
2.105000000000000000e+03,6.570000000000000000e+03,7.700000000000000000e+01
2.105000000000000000e+03,6.570000000000000000e+03,7.700000000000000000e+01
2.105000000000000000e+03,6.570000000000000000e+03,7.700000000000000000e+01
2.100000000000000000e+03,6.570000000000000000e+03,2.000000000000000000e+02
2.100000000000000000e+03,6.578000000000000000e+03,2.000000000000000000e+02
2.100000000000000000e+03,6.578000000000000000e+03,2.000000000000000000e+02
2.100000000000000000e+03,6.578000000000000000e+03,2.000000000000000000e+02
2.108000000000000000e+03,6.578000000000000000e+03,2.930000000000000000e+02
2.108000000000000000e+03,6.565000000000000000e+03,2.930000000000000000e+02
2.108000000000000000e+03,6.565000000000000000e+03,2.930000000000000000e+02
2.108000000000000000e+03,6.565000000000000000e+03,2.930000000000000000e+02
2.083000000000000000e+03,6.565000000000000000e+03,1.590000000000000000e+02
2.083000000000000000e+03,6.540000000000000000e+03,1.590000000000000000e+02
2.083000000000000000e+03,6.540000000000000000e+03,1.590000000000000000e+02
2.083000000000000000e+03,6.540000000000000000e+03,1.590000000000000000e+02
2.072000000000000000e+03,6.540000000000000000e+03,-9.400000000000000000e+01
2.072000000000000000e+03,6.515000000000000000e+03,-9.400000000000000000e+01
2.072000000000000000e+03,6.515000000000000000e+03,-9.400000000000000000e+01
2.072000000000000000e+03,6.515000000000000000e+03,-9.400000000000000000e+01
2.063000000000000000e+03,6.515000000000000000e+03,-3.800000000000000000e+01
2.063000000000000000e+03,6.506000000000000000e+03,-3.800000000000000000e+01
2.063000000000000000e+03,6.506000000000000000e+03,-3.800000000000000000e+01
2.063000000000000000e+03,6.506000000000000000e+03,-3.800000000000000000e+01
2.072000000000000000e+03,6.506000000000000000e+03,1.100000000000000000e+01
2.072000000000000000e+03,6.503000000000000000e+03,1.100000000000000000e+01
2.072000000000000000e+03,6.503000000000000000e+03,1.100000000000000000e+01
2.072000000000000000e+03,6.503000000000000000e+03,1.100000000000000000e+01
2.067000000000000000e+03,6.503000000000000000e+03,-1.970000000000000000e+02
2.067000000000000000e+03,6.502000000000000000e+03,-1.970000000000000000e+02
2.067000000000000000e+03,6.502000000000000000e+03,-1.970000000000000000e+02
2.067000000000000000e+03,6.502000000000000000e+03,-1.970000000000000000e+02
2.073000000000000000e+03,6.502000000000000000e+03,1.860000000000000000e+02
2.073000000000000000e+03,6.529000000000000000e+03,1.860000000000000000e+02
2.073000000000000000e+03,6.529000000000000000e+03,1.860000000000000000e+02
2.073000000000000000e+03,6.529000000000000000e+03,1.860000000000000000e+02
2.083000000000000000e+03,6.529000000000000000e+03,-4.600000000000000000e+01
2.083000000000000000e+03,6.535000000000000000e+03,-4.600000000000000000e+01
2.083000000000000000e+03,6.535000000000000000e+03,-4.600000000000000000e+01
2.083000000000000000e+03,6.535000000000000000e+03,-4.600000000000000000e+01
2.074000000000000000e+03,6.535000000000000000e+03,1.260000000000000000e+02
2.074000000000000000e+03,6.533000000000000000e+03,1.260000000000000000e+02
2.074000000000000000e+03,6.533000000000000000e+03,1.260000000000000000e+02
2.074000000000000000e+03,6.533000000000000000e+03,1.260000000000000000e+02
2.078000000000000000e+03,6.533000000000000000e+03,1.900000000000000000e+01
2.078000000000000000e+03,6.545000000000000000e+03,1.900000000000000000e+01
2.078000000000000000e+03,6.545000000000000000e+03,1.900000000000000000e+01
2.078000000000000000e+03,6.545000000000000000e+03,1.900000000000000000e+01
2.075000000000000000e+03,6.545000000000000000e+03,1.190000000000000000e+02
2.075000000000000000e+03,6.567000000000000000e+03,1.190000000000000000e+02
2.075000000000000000e+03,6.567000000000000000e+03,1.190000000000000000e+02
2.075000000000000000e+03,6.567000000000000000e+03,1.190000000000000000e+02
2.079000000000000000e+03,6.567000000000000000e+03,-9.400000000000000000e+01
2.079000000000000000e+03,6.568000000000000000e+03,-9.400000000000000000e+01
2.079000000000000000e+03,6.568000000000000000e+03,-9.400000000000000000e+01
2.079000000000000000e+03,6.568000000000000000e+03,-9.400000000000000000e+01
2.070000000000000000e+03,6.568000000000000000e+03,-6.900000000000000000e+01
2.070000000000000000e+03,6.553000000000000000e+03,-6.900000000000000000e+01
2.070000000000000000e+03,6.553000000000000000e+03,-6.900000000000000000e+01
2.070000000000000000e+03,6.553000000000000000e+03,-6.900000000000000000e+01
2.065000000000000000e+03,6.553000000000000000e+03,-2.900000000000000000e+01
2.065000000000000000e+03,6.547000000000000000e+03,-2.900000000000000000e+01
2.065000000000000000e+03,6.547000000000000000e+03,-2.900000000000000000e+01
2.065000000000000000e+03,6.547000000000000000e+03,-2.900000000000000000e+01
2.070000000000000000e+03,6.547000000000000000e+03,-5.000000000000000000e+00
2.070000000000000000e+03,6.548000000000000000e+03,-5.000000000000000000e+00
2.070000000000000000e+03,6.548000000000000000e+03,-5.000000000000000000e+00
2.070000000000000000e+03,6.548000000000000000e+03,-5.000000000000000000e+00
2.073000000000000000e+03,6.548000000000000000e+03,5.200000000000000000e+01
2.073000000000000000e+03,6.543000000000000000e+03,5.200000000000000000e+01
2.073000000000000000e+03,6.543000000000000000e+03,5.200000000000000000e+01
2.073000000000000000e+03,6.543000000000000000e+03,5.200000000000000000e+01
2.060000000000000000e+03,6.543000000000000000e+03,-1.120000000000000000e+02
2.060000000000000000e+03,6.534000000000000000e+03,-1.120000000000000000e+02
2.060000000000000000e+03,6.534000000000000000e+03,-1.120000000000000000e+02
2.060000000000000000e+03,6.534000000000000000e+03,-1.120000000000000000e+02
2.061000000000000000e+03,6.534000000000000000e+03,-1.350000000000000000e+02
2.061000000000000000e+03,6.550000000000000000e+03,-1.350000000000000000e+02
2.061000000000000000e+03,6.550000000000000000e+03,-1.350000000000000000e+02
2.061000000000000000e+03,6.550000000000000000e+03,-1.350000000000000000e+02
2.065000000000000000e+03,6.550000000000000000e+03,-3.400000000000000000e+01
2.065000000000000000e+03,6.547000000000000000e+03,-3.400000000000000000e+01
2.065000000000000000e+03,6.547000000000000000e+03,-3.400000000000000000e+01
2.065000000000000000e+03,6.547000000000000000e+03,-3.400000000000000000e+01
2.054000000000000000e+03,6.547000000000000000e+03,5.800000000000000000e+01
2.054000000000000000e+03,6.539000000000000000e+03,5.800000000000000000e+01
2.054000000000000000e+03,6.539000000000000000e+03,5.800000000000000000e+01
2.054000000000000000e+03,6.539000000000000000e+03,5.800000000000000000e+01
2.067000000000000000e+03,6.539000000000000000e+03,1.100000000000000000e+01
2.067000000000000000e+03,6.551000000000000000e+03,1.100000000000000000e+01
2.067000000000000000e+03,6.551000000000000000e+03,1.100000000000000000e+01
2.067000000000000000e+03,6.551000000000000000e+03,1.100000000000000000e+01
2.052000000000000000e+03,6.551000000000000000e+03,8.900000000000000000e+01
2.052000000000000000e+03,6.555000000000000000e+03,8.900000000000000000e+01
2.052000000000000000e+03,6.555000000000000000e+03,8.900000000000000000e+01
2.052000000000000000e+03,6.555000000000000000e+03,8.900000000000000000e+01
2.057000000000000000e+03,6.555000000000000000e+03,1.150000000000000000e+02
2.057000000000000000e+03,6.549000000000000000e+03,1.150000000000000000e+02
2.057000000000000000e+03,6.549000000000000000e+03,1.150000000000000000e+02
2.057000000000000000e+03,6.549000000000000000e+03,1.150000000000000000e+02
2.043000000000000000e+03,6.549000000000000000e+03,-1.040000000000000000e+02
2.043000000000000000e+03,6.558000000000000000e+03,-1.040000000000000000e+02
2.043000000000000000e+03,6.558000000000000000e+03,-1.040000000000000000e+02
2.043000000000000000e+03,6.558000000000000000e+03,-1.040000000000000000e+02
2.046000000000000000e+03,6.558000000000000000e+03,-3.800000000000000000e+01
2.046000000000000000e+03,6.557000000000000000e+03,-3.800000000000000000e+01
2.046000000000000000e+03,6.557000000000000000e+03,-3.800000000000000000e+01
2.046000000000000000e+03,6.557000000000000000e+03,-3.800000000000000000e+01
2.051000000000000000e+03,6.557000000000000000e+03,-5.700000000000000000e+01
2.051000000000000000e+03,6.554000000000000000e+03,-5.700000000000000000e+01
2.051000000000000000e+03,6.554000000000000000e+03,-5.700000000000000000e+01
2.051000000000000000e+03,6.554000000000000000e+03,-5.700000000000000000e+01
2.037000000000000000e+03,6.554000000000000000e+03,-4.600000000000000000e+01
2.037000000000000000e+03,6.559000000000000000e+03,-4.600000000000000000e+01
2.037000000000000000e+03,6.559000000000000000e+03,-4.600000000000000000e+01
2.037000000000000000e+03,6.559000000000000000e+03,-4.600000000000000000e+01
2.040000000000000000e+03,6.559000000000000000e+03,-1.800000000000000000e+02
2.040000000000000000e+03,6.564000000000000000e+03,-1.800000000000000000e+02
2.040000000000000000e+03,6.564000000000000000e+03,-1.800000000000000000e+02
2.040000000000000000e+03,6.564000000000000000e+03,-1.800000000000000000e+02
2.036000000000000000e+03,6.564000000000000000e+03,4.750000000000000000e+02
2.036000000000000000e+03,6.558000000000000000e+03,4.750000000000000000e+02
2.036000000000000000e+03,6.558000000000000000e+03,4.750000000000000000e+02
2.036000000000000000e+03,6.558000000000000000e+03,4.750000000000000000e+02
2.034000000000000000e+03,6.558000000000000000e+03,-3.790000000000000000e+02
2.034000000000000000e+03,6.542000000000000000e+03,-3.790000000000000000e+02
2.034000000000000000e+03,6.542000000000000000e+03,-3.790000000000000000e+02
2.034000000000000000e+03,6.542000000000000000e+03,-3.790000000000000000e+02
2.039000000000000000e+03,6.542000000000000000e+03,8.300000000000000000e+01
2.039000000000000000e+03,6.560000000000000000e+03,8.300000000000000000e+01
2.039000000000000000e+03,6.560000000000000000e+03,8.300000000000000000e+01
2.039000000000000000e+03,6.560000000000000000e+03,8.300000000000000000e+01
2.026000000000000000e+03,6.560000000000000000e+03,-1.240000000000000000e+02
2.026000000000000000e+03,6.561000000000000000e+03,-1.240000000000000000e+02
2.026000000000000000e+03,6.561000000000000000e+03,-1.240000000000000000e+02
2.026000000000000000e+03,6.561000000000000000e+03,-1.240000000000000000e+02
2.025000000000000000e+03,6.561000000000000000e+03,-1.040000000000000000e+02
2.025000000000000000e+03,6.563000000000000000e+03,-1.040000000000000000e+02
2.025000000000000000e+03,6.563000000000000000e+03,-1.040000000000000000e+02
2.025000000000000000e+03,6.563000000000000000e+03,-1.040000000000000000e+02
2.035000000000000000e+03,6.563000000000000000e+03,-7.300000000000000000e+01
2.035000000000000000e+03,6.572000000000000000e+03,-7.300000000000000000e+01
2.035000000000000000e+03,6.572000000000000000e+03,-7.300000000000000000e+01
2.035000000000000000e+03,6.572000000000000000e+03,-7.300000000000000000e+01
2.035000000000000000e+03,6.572000000000000000e+03,-2.000000000000000000e+00
2.035000000000000000e+03,6.581000000000000000e+03,-2.000000000000000000e+00
2.035000000000000000e+03,6.581000000000000000e+03,-2.000000000000000000e+00
2.035000000000000000e+03,6.581000000000000000e+03,-2.000000000000000000e+00
2.020000000000000000e+03,6.581000000000000000e+03,-1.100000000000000000e+02
2.020000000000000000e+03,6.563000000000000000e+03,-1.100000000000000000e+02
2.020000000000000000e+03,6.563000000000000000e+03,-1.100000000000000000e+02
2.020000000000000000e+03,6.563000000000000000e+03,-1.100000000000000000e+02
2.032000000000000000e+03,6.563000000000000000e+03,-1.360000000000000000e+02
2.032000000000000000e+03,6.579000000000000000e+03,-1.360000000000000000e+02
2.032000000000000000e+03,6.579000000000000000e+03,-1.360000000000000000e+02
2.032000000000000000e+03,6.579000000000000000e+03,-1.360000000000000000e+02
2.030000000000000000e+03,6.579000000000000000e+03,-1.190000000000000000e+02
2.030000000000000000e+03,6.580000000000000000e+03,-1.190000000000000000e+02
2.030000000000000000e+03,6.580000000000000000e+03,-1.190000000000000000e+02
2.030000000000000000e+03,6.580000000000000000e+03,-1.190000000000000000e+02
2.018000000000000000e+03,6.580000000000000000e+03,2.400000000000000000e+01
2.018000000000000000e+03,6.575000000000000000e+03,2.400000000000000000e+01
2.018000000000000000e+03,6.575000000000000000e+03,2.400000000000000000e+01
2.018000000000000000e+03,6.575000000000000000e+03,2.400000000000000000e+01
2.018000000000000000e+03,6.575000000000000000e+03,4.800000000000000000e+01
2.018000000000000000e+03,6.549000000000000000e+03,4.800000000000000000e+01
2.018000000000000000e+03,6.549000000000000000e+03,4.800000000000000000e+01
2.018000000000000000e+03,6.549000000000000000e+03,4.800000000000000000e+01
1.992000000000000000e+03,6.549000000000000000e+03,-5.000000000000000000e+01
1.992000000000000000e+03,6.524000000000000000e+03,-5.000000000000000000e+01
1.992000000000000000e+03,6.524000000000000000e+03,-5.000000000000000000e+01
1.992000000000000000e+03,6.524000000000000000e+03,-5.000000000000000000e+01
1.980000000000000000e+03,6.524000000000000000e+03,-8.600000000000000000e+01
1.980000000000000000e+03,6.496000000000000000e+03,-8.600000000000000000e+01
1.980000000000000000e+03,6.496000000000000000e+03,-8.600000000000000000e+01
1.980000000000000000e+03,6.496000000000000000e+03,-8.600000000000000000e+01
1.977000000000000000e+03,6.496000000000000000e+03,-2.780000000000000000e+02
1.977000000000000000e+03,6.502000000000000000e+03,-2.780000000000000000e+02
1.977000000000000000e+03,6.502000000000000000e+03,-2.780000000000000000e+02
1.977000000000000000e+03,6.502000000000000000e+03,-2.780000000000000000e+02
1.969000000000000000e+03,6.502000000000000000e+03,-2.240000000000000000e+02
1.969000000000000000e+03,6.495000000000000000e+03,-2.240000000000000000e+02
1.969000000000000000e+03,6.495000000000000000e+03,-2.240000000000000000e+02
1.969000000000000000e+03,6.495000000000000000e+03,-2.240000000000000000e+02
1.984000000000000000e+03,6.495000000000000000e+03,-1.200000000000000000e+02
1.984000000000000000e+03,6.507000000000000000e+03,-1.200000000000000000e+02
1.984000000000000000e+03,6.507000000000000000e+03,-1.200000000000000000e+02
1.984000000000000000e+03,6.507000000000000000e+03,-1.200000000000000000e+02
1.984000000000000000e+03,6.507000000000000000e+03,-3.320000000000000000e+02
1.984000000000000000e+03,6.504000000000000000e+03,-3.320000000000000000e+02
1.984000000000000000e+03,6.504000000000000000e+03,-3.320000000000000000e+02
1.984000000000000000e+03,6.504000000000000000e+03,-3.320000000000000000e+02
1.983000000000000000e+03,6.504000000000000000e+03,-7.000000000000000000e+01
1.983000000000000000e+03,6.521000000000000000e+03,-7.000000000000000000e+01
1.983000000000000000e+03,6.521000000000000000e+03,-7.000000000000000000e+01
1.983000000000000000e+03,6.521000000000000000e+03,-7.000000000000000000e+01
1.984000000000000000e+03,6.521000000000000000e+03,-3.160000000000000000e+02
1.984000000000000000e+03,6.531000000000000000e+03,-3.160000000000000000e+02
1.984000000000000000e+03,6.531000000000000000e+03,-3.160000000000000000e+02
1.984000000000000000e+03,6.531000000000000000e+03,-3.160000000000000000e+02
1.987000000000000000e+03,6.531000000000000000e+03,-2.450000000000000000e+02
1.987000000000000000e+03,6.527000000000000000e+03,-2.450000000000000000e+02
1.987000000000000000e+03,6.527000000000000000e+03,-2.450000000000000000e+02
1.987000000000000000e+03,6.527000000000000000e+03,-2.450000000000000000e+02
1.975000000000000000e+03,6.527000000000000000e+03,-3.100000000000000000e+02
1.975000000000000000e+03,6.545000000000000000e+03,-3.100000000000000000e+02
1.975000000000000000e+03,6.545000000000000000e+03,-3.100000000000000000e+02
1.975000000000000000e+03,6.545000000000000000e+03,-3.100000000000000000e+02
1.987000000000000000e+03,6.545000000000000000e+03,-1.280000000000000000e+02
1.987000000000000000e+03,6.538000000000000000e+03,-1.280000000000000000e+02
1.987000000000000000e+03,6.538000000000000000e+03,-1.280000000000000000e+02
1.987000000000000000e+03,6.538000000000000000e+03,-1.280000000000000000e+02
1.989000000000000000e+03,6.538000000000000000e+03,-4.050000000000000000e+02
1.989000000000000000e+03,6.533000000000000000e+03,-4.050000000000000000e+02
1.989000000000000000e+03,6.533000000000000000e+03,-4.050000000000000000e+02
1.989000000000000000e+03,6.533000000000000000e+03,-4.050000000000000000e+02
1.977000000000000000e+03,6.533000000000000000e+03,-3.760000000000000000e+02
1.977000000000000000e+03,6.530000000000000000e+03,-3.760000000000000000e+02
1.977000000000000000e+03,6.530000000000000000e+03,-3.760000000000000000e+02
1.977000000000000000e+03,6.530000000000000000e+03,-3.760000000000000000e+02
1.968000000000000000e+03,6.530000000000000000e+03,-2.240000000000000000e+02
1.968000000000000000e+03,6.528000000000000000e+03,-2.240000000000000000e+02
1.968000000000000000e+03,6.528000000000000000e+03,-2.240000000000000000e+02
1.968000000000000000e+03,6.528000000000000000e+03,-2.240000000000000000e+02
1.974000000000000000e+03,6.528000000000000000e+03,-2.310000000000000000e+02
1.974000000000000000e+03,6.530000000000000000e+03,-2.310000000000000000e+02
1.974000000000000000e+03,6.530000000000000000e+03,-2.310000000000000000e+02
1.974000000000000000e+03,6.530000000000000000e+03,-2.310000000000000000e+02
1.977000000000000000e+03,6.530000000000000000e+03,-1.810000000000000000e+02
1.977000000000000000e+03,6.546000000000000000e+03,-1.810000000000000000e+02
1.977000000000000000e+03,6.546000000000000000e+03,-1.810000000000000000e+02
1.977000000000000000e+03,6.546000000000000000e+03,-1.810000000000000000e+02
1.977000000000000000e+03,6.546000000000000000e+03,-2.090000000000000000e+02
1.977000000000000000e+03,6.525000000000000000e+03,-2.090000000000000000e+02
1.977000000000000000e+03,6.525000000000000000e+03,-2.090000000000000000e+02
1.977000000000000000e+03,6.525000000000000000e+03,-2.090000000000000000e+02
1.973000000000000000e+03,6.525000000000000000e+03,-2.650000000000000000e+02
1.973000000000000000e+03,6.532000000000000000e+03,-2.650000000000000000e+02
1.973000000000000000e+03,6.532000000000000000e+03,-2.650000000000000000e+02
1.973000000000000000e+03,6.532000000000000000e+03,-2.650000000000000000e+02
1.976000000000000000e+03,6.532000000000000000e+03,-2.130000000000000000e+02
1.976000000000000000e+03,6.527000000000000000e+03,-2.130000000000000000e+02
1.976000000000000000e+03,6.527000000000000000e+03,-2.130000000000000000e+02
1.976000000000000000e+03,6.527000000000000000e+03,-2.130000000000000000e+02
1.971000000000000000e+03,6.527000000000000000e+03,4.500000000000000000e+01
1.971000000000000000e+03,6.547000000000000000e+03,4.500000000000000000e+01
1.971000000000000000e+03,6.547000000000000000e+03,4.500000000000000000e+01
1.971000000000000000e+03,6.547000000000000000e+03,4.500000000000000000e+01
1.977000000000000000e+03,6.547000000000000000e+03,2.700000000000000000e+01
1.977000000000000000e+03,6.560000000000000000e+03,2.700000000000000000e+01
1.977000000000000000e+03,6.560000000000000000e+03,2.700000000000000000e+01
1.977000000000000000e+03,6.560000000000000000e+03,2.700000000000000000e+01
1.982000000000000000e+03,6.560000000000000000e+03,1.010000000000000000e+02
1.982000000000000000e+03,6.578000000000000000e+03,1.010000000000000000e+02
1.982000000000000000e+03,6.578000000000000000e+03,1.010000000000000000e+02
1.982000000000000000e+03,6.578000000000000000e+03,1.010000000000000000e+02
1.986000000000000000e+03,6.578000000000000000e+03,-1.090000000000000000e+02
1.986000000000000000e+03,6.562000000000000000e+03,-1.090000000000000000e+02
1.986000000000000000e+03,6.562000000000000000e+03,-1.090000000000000000e+02
1.986000000000000000e+03,6.562000000000000000e+03,-1.090000000000000000e+02
1.972000000000000000e+03,6.562000000000000000e+03,1.900000000000000000e+01
1.972000000000000000e+03,6.559000000000000000e+03,1.900000000000000000e+01
1.972000000000000000e+03,6.559000000000000000e+03,1.900000000000000000e+01
1.972000000000000000e+03,6.559000000000000000e+03,1.900000000000000000e+01
1.968000000000000000e+03,6.559000000000000000e+03,1.500000000000000000e+01
1.968000000000000000e+03,6.542000000000000000e+03,1.500000000000000000e+01
1.968000000000000000e+03,6.542000000000000000e+03,1.500000000000000000e+01
1.968000000000000000e+03,6.542000000000000000e+03,1.500000000000000000e+01
1.964000000000000000e+03,6.542000000000000000e+03,-3.040000000000000000e+02
1.964000000000000000e+03,6.541000000000000000e+03,-3.040000000000000000e+02
1.964000000000000000e+03,6.541000000000000000e+03,-3.040000000000000000e+02
1.964000000000000000e+03,6.541000000000000000e+03,-3.040000000000000000e+02
1.961000000000000000e+03,6.541000000000000000e+03,6.650000000000000000e+02
1.961000000000000000e+03,6.548000000000000000e+03,6.650000000000000000e+02
1.961000000000000000e+03,6.548000000000000000e+03,6.650000000000000000e+02
1.961000000000000000e+03,6.548000000000000000e+03,6.650000000000000000e+02
1.951000000000000000e+03,6.548000000000000000e+03,-4.630000000000000000e+02
1.951000000000000000e+03,6.552000000000000000e+03,-4.630000000000000000e+02
1.951000000000000000e+03,6.552000000000000000e+03,-4.630000000000000000e+02
1.951000000000000000e+03,6.552000000000000000e+03,-4.630000000000000000e+02
1.948000000000000000e+03,6.552000000000000000e+03,-9.700000000000000000e+01
1.948000000000000000e+03,6.552000000000000000e+03,-9.700000000000000000e+01
1.948000000000000000e+03,6.552000000000000000e+03,-9.700000000000000000e+01
1.948000000000000000e+03,6.552000000000000000e+03,-9.700000000000000000e+01
1.950000000000000000e+03,6.552000000000000000e+03,6.200000000000000000e+01
1.950000000000000000e+03,6.556000000000000000e+03,6.200000000000000000e+01
1.950000000000000000e+03,6.556000000000000000e+03,6.200000000000000000e+01
1.950000000000000000e+03,6.556000000000000000e+03,6.200000000000000000e+01
1.939000000000000000e+03,6.556000000000000000e+03,9.200000000000000000e+01
1.939000000000000000e+03,6.544000000000000000e+03,9.200000000000000000e+01
1.939000000000000000e+03,6.544000000000000000e+03,9.200000000000000000e+01
1.939000000000000000e+03,6.544000000000000000e+03,9.200000000000000000e+01
1.938000000000000000e+03,6.544000000000000000e+03,-3.300000000000000000e+01
1.938000000000000000e+03,6.550000000000000000e+03,-3.300000000000000000e+01
1.938000000000000000e+03,6.550000000000000000e+03,-3.300000000000000000e+01
1.938000000000000000e+03,6.550000000000000000e+03,-3.300000000000000000e+01
1.936000000000000000e+03,6.550000000000000000e+03,-3.700000000000000000e+01
1.936000000000000000e+03,6.548000000000000000e+03,-3.700000000000000000e+01
1.936000000000000000e+03,6.548000000000000000e+03,-3.700000000000000000e+01
1.936000000000000000e+03,6.548000000000000000e+03,-3.700000000000000000e+01
1.945000000000000000e+03,6.548000000000000000e+03,3.400000000000000000e+01
1.945000000000000000e+03,6.554000000000000000e+03,3.400000000000000000e+01
1.945000000000000000e+03,6.554000000000000000e+03,3.400000000000000000e+01
1.945000000000000000e+03,6.554000000000000000e+03,3.400000000000000000e+01
1.935000000000000000e+03,6.554000000000000000e+03,3.000000000000000000e+01
1.935000000000000000e+03,6.548000000000000000e+03,3.000000000000000000e+01
1.935000000000000000e+03,6.548000000000000000e+03,3.000000000000000000e+01
1.935000000000000000e+03,6.548000000000000000e+03,3.000000000000000000e+01
1.934000000000000000e+03,6.548000000000000000e+03,1.760000000000000000e+02
1.934000000000000000e+03,6.549000000000000000e+03,1.760000000000000000e+02
1.934000000000000000e+03,6.549000000000000000e+03,1.760000000000000000e+02
1.934000000000000000e+03,6.549000000000000000e+03,1.760000000000000000e+02
1.930000000000000000e+03,6.549000000000000000e+03,1.160000000000000000e+02
1.930000000000000000e+03,6.555000000000000000e+03,1.160000000000000000e+02
1.930000000000000000e+03,6.555000000000000000e+03,1.160000000000000000e+02
1.930000000000000000e+03,6.555000000000000000e+03,1.160000000000000000e+02
1.925000000000000000e+03,6.555000000000000000e+03,-6.200000000000000000e+01
1.925000000000000000e+03,6.521000000000000000e+03,-6.200000000000000000e+01
1.925000000000000000e+03,6.521000000000000000e+03,-6.200000000000000000e+01
1.925000000000000000e+03,6.521000000000000000e+03,-6.200000000000000000e+01
1.899000000000000000e+03,6.521000000000000000e+03,2.100000000000000000e+01
1.899000000000000000e+03,6.498000000000000000e+03,2.100000000000000000e+01
1.899000000000000000e+03,6.498000000000000000e+03,2.100000000000000000e+01
1.899000000000000000e+03,6.498000000000000000e+03,2.100000000000000000e+01
1.874000000000000000e+03,6.498000000000000000e+03,-5.400000000000000000e+01
1.874000000000000000e+03,6.468000000000000000e+03,-5.400000000000000000e+01
1.874000000000000000e+03,6.468000000000000000e+03,-5.400000000000000000e+01
1.874000000000000000e+03,6.468000000000000000e+03,-5.400000000000000000e+01
1.871000000000000000e+03,6.468000000000000000e+03,-1.560000000000000000e+02
1.871000000000000000e+03,6.463000000000000000e+03,-1.560000000000000000e+02
1.871000000000000000e+03,6.463000000000000000e+03,-1.560000000000000000e+02
1.871000000000000000e+03,6.463000000000000000e+03,-1.560000000000000000e+02
1.868000000000000000e+03,6.463000000000000000e+03,-3.040000000000000000e+02
1.868000000000000000e+03,6.443000000000000000e+03,-3.040000000000000000e+02
1.868000000000000000e+03,6.443000000000000000e+03,-3.040000000000000000e+02
1.868000000000000000e+03,6.443000000000000000e+03,-3.040000000000000000e+02
1.861000000000000000e+03,6.443000000000000000e+03,-1.190000000000000000e+02
1.861000000000000000e+03,6.449000000000000000e+03,-1.190000000000000000e+02
1.861000000000000000e+03,6.449000000000000000e+03,-1.190000000000000000e+02
1.861000000000000000e+03,6.449000000000000000e+03,-1.190000000000000000e+02
1.862000000000000000e+03,6.449000000000000000e+03,-4.600000000000000000e+01
1.862000000000000000e+03,6.462000000000000000e+03,-4.600000000000000000e+01
1.862000000000000000e+03,6.462000000000000000e+03,-4.600000000000000000e+01
1.862000000000000000e+03,6.462000000000000000e+03,-4.600000000000000000e+01
1.853000000000000000e+03,6.462000000000000000e+03,-1.120000000000000000e+02
1.853000000000000000e+03,6.453000000000000000e+03,-1.120000000000000000e+02
1.853000000000000000e+03,6.453000000000000000e+03,-1.120000000000000000e+02
1.853000000000000000e+03,6.453000000000000000e+03,-1.120000000000000000e+02
1.859000000000000000e+03,6.453000000000000000e+03,-2.300000000000000000e+02
1.859000000000000000e+03,6.461000000000000000e+03,-2.300000000000000000e+02
1.859000000000000000e+03,6.461000000000000000e+03,-2.300000000000000000e+02
1.859000000000000000e+03,6.461000000000000000e+03,-2.300000000000000000e+02
1.852000000000000000e+03,6.461000000000000000e+03,-1.990000000000000000e+02
1.852000000000000000e+03,6.476000000000000000e+03,-1.990000000000000000e+02
1.852000000000000000e+03,6.476000000000000000e+03,-1.990000000000000000e+02
1.852000000000000000e+03,6.476000000000000000e+03,-1.990000000000000000e+02
1.845000000000000000e+03,6.476000000000000000e+03,-7.900000000000000000e+01
1.845000000000000000e+03,6.464000000000000000e+03,-7.900000000000000000e+01
1.845000000000000000e+03,6.464000000000000000e+03,-7.900000000000000000e+01
1.845000000000000000e+03,6.464000000000000000e+03,-7.900000000000000000e+01
1.851000000000000000e+03,6.464000000000000000e+03,-1.150000000000000000e+02
1.851000000000000000e+03,6.474000000000000000e+03,-1.150000000000000000e+02
1.851000000000000000e+03,6.474000000000000000e+03,-1.150000000000000000e+02
1.851000000000000000e+03,6.474000000000000000e+03,-1.150000000000000000e+02
1.840000000000000000e+03,6.474000000000000000e+03,-2.080000000000000000e+02
1.840000000000000000e+03,6.473000000000000000e+03,-2.080000000000000000e+02
1.840000000000000000e+03,6.473000000000000000e+03,-2.080000000000000000e+02
1.840000000000000000e+03,6.473000000000000000e+03,-2.080000000000000000e+02
1.830000000000000000e+03,6.473000000000000000e+03,-2.280000000000000000e+02
1.830000000000000000e+03,6.445000000000000000e+03,-2.280000000000000000e+02
1.830000000000000000e+03,6.445000000000000000e+03,-2.280000000000000000e+02
1.830000000000000000e+03,6.445000000000000000e+03,-2.280000000000000000e+02
1.832000000000000000e+03,6.445000000000000000e+03,-2.030000000000000000e+02
1.832000000000000000e+03,6.451000000000000000e+03,-2.030000000000000000e+02
1.832000000000000000e+03,6.451000000000000000e+03,-2.030000000000000000e+02
1.832000000000000000e+03,6.451000000000000000e+03,-2.030000000000000000e+02
1.826000000000000000e+03,6.451000000000000000e+03,-1.820000000000000000e+02
1.826000000000000000e+03,6.451000000000000000e+03,-1.820000000000000000e+02
1.826000000000000000e+03,6.451000000000000000e+03,-1.820000000000000000e+02
1.826000000000000000e+03,6.451000000000000000e+03,-1.820000000000000000e+02
1.816000000000000000e+03,6.451000000000000000e+03,-1.700000000000000000e+02
1.816000000000000000e+03,6.449000000000000000e+03,-1.700000000000000000e+02
1.816000000000000000e+03,6.449000000000000000e+03,-1.700000000000000000e+02
1.816000000000000000e+03,6.449000000000000000e+03,-1.700000000000000000e+02
1.816000000000000000e+03,6.449000000000000000e+03,-1.430000000000000000e+02
1.816000000000000000e+03,6.431000000000000000e+03,-1.430000000000000000e+02
1.816000000000000000e+03,6.431000000000000000e+03,-1.430000000000000000e+02
1.816000000000000000e+03,6.431000000000000000e+03,-1.430000000000000000e+02
1.820000000000000000e+03,6.431000000000000000e+03,-1.090000000000000000e+02
1.820000000000000000e+03,6.451000000000000000e+03,-1.090000000000000000e+02
1.820000000000000000e+03,6.451000000000000000e+03,-1.090000000000000000e+02
1.820000000000000000e+03,6.451000000000000000e+03,-1.090000000000000000e+02
1.802000000000000000e+03,6.451000000000000000e+03,-1.810000000000000000e+02
1.802000000000000000e+03,6.438000000000000000e+03,-1.810000000000000000e+02
1.802000000000000000e+03,6.438000000000000000e+03,-1.810000000000000000e+02
1.802000000000000000e+03,6.438000000000000000e+03,-1.810000000000000000e+02
1.801000000000000000e+03,6.438000000000000000e+03,-1.700000000000000000e+01
1.801000000000000000e+03,6.431000000000000000e+03,-1.700000000000000000e+01
1.801000000000000000e+03,6.431000000000000000e+03,-1.700000000000000000e+01
1.801000000000000000e+03,6.431000000000000000e+03,-1.700000000000000000e+01
1.802000000000000000e+03,6.431000000000000000e+03,-5.700000000000000000e+01
1.802000000000000000e+03,6.439000000000000000e+03,-5.700000000000000000e+01
1.802000000000000000e+03,6.439000000000000000e+03,-5.700000000000000000e+01
1.802000000000000000e+03,6.439000000000000000e+03,-5.700000000000000000e+01
1.803000000000000000e+03,6.439000000000000000e+03,9.500000000000000000e+01
1.803000000000000000e+03,6.435000000000000000e+03,9.500000000000000000e+01
1.803000000000000000e+03,6.435000000000000000e+03,9.500000000000000000e+01
1.803000000000000000e+03,6.435000000000000000e+03,9.500000000000000000e+01
1.802000000000000000e+03,6.435000000000000000e+03,-1.150000000000000000e+02
1.802000000000000000e+03,6.437000000000000000e+03,-1.150000000000000000e+02
1.802000000000000000e+03,6.437000000000000000e+03,-1.150000000000000000e+02
1.802000000000000000e+03,6.437000000000000000e+03,-1.150000000000000000e+02
1.796000000000000000e+03,6.437000000000000000e+03,9.700000000000000000e+01
1.796000000000000000e+03,6.440000000000000000e+03,9.700000000000000000e+01
1.796000000000000000e+03,6.440000000000000000e+03,9.700000000000000000e+01
1.796000000000000000e+03,6.440000000000000000e+03,9.700000000000000000e+01
1.789000000000000000e+03,6.440000000000000000e+03,-1.080000000000000000e+02
1.789000000000000000e+03,6.449000000000000000e+03,-1.080000000000000000e+02
1.789000000000000000e+03,6.449000000000000000e+03,-1.080000000000000000e+02
1.789000000000000000e+03,6.449000000000000000e+03,-1.080000000000000000e+02
1.783000000000000000e+03,6.449000000000000000e+03,-4.570000000000000000e+02
1.783000000000000000e+03,6.439000000000000000e+03,-4.570000000000000000e+02
1.783000000000000000e+03,6.439000000000000000e+03,-4.570000000000000000e+02
1.783000000000000000e+03,6.439000000000000000e+03,-4.570000000000000000e+02
1.766000000000000000e+03,6.439000000000000000e+03,-5.800000000000000000e+01
1.766000000000000000e+03,6.435000000000000000e+03,-5.800000000000000000e+01
1.766000000000000000e+03,6.435000000000000000e+03,-5.800000000000000000e+01
1.766000000000000000e+03,6.435000000000000000e+03,-5.800000000000000000e+01
1.766000000000000000e+03,6.435000000000000000e+03,-2.270000000000000000e+02
1.766000000000000000e+03,6.420000000000000000e+03,-2.270000000000000000e+02
1.766000000000000000e+03,6.420000000000000000e+03,-2.270000000000000000e+02
1.766000000000000000e+03,6.420000000000000000e+03,-2.270000000000000000e+02
1.759000000000000000e+03,6.420000000000000000e+03,-5.900000000000000000e+01
1.759000000000000000e+03,6.400000000000000000e+03,-5.900000000000000000e+01
1.759000000000000000e+03,6.400000000000000000e+03,-5.900000000000000000e+01
1.759000000000000000e+03,6.400000000000000000e+03,-5.900000000000000000e+01
1.758000000000000000e+03,6.400000000000000000e+03,-4.100000000000000000e+01
1.758000000000000000e+03,6.425000000000000000e+03,-4.100000000000000000e+01
1.758000000000000000e+03,6.425000000000000000e+03,-4.100000000000000000e+01
1.758000000000000000e+03,6.425000000000000000e+03,-4.100000000000000000e+01
1.751000000000000000e+03,6.425000000000000000e+03,4.100000000000000000e+01
1.751000000000000000e+03,6.407000000000000000e+03,4.100000000000000000e+01
1.751000000000000000e+03,6.407000000000000000e+03,4.100000000000000000e+01
1.751000000000000000e+03,6.407000000000000000e+03,4.100000000000000000e+01
1.751000000000000000e+03,6.407000000000000000e+03,8.200000000000000000e+01
1.751000000000000000e+03,6.416000000000000000e+03,8.200000000000000000e+01
1.751000000000000000e+03,6.416000000000000000e+03,8.200000000000000000e+01
